heart_rate_bpm,oxygen_saturation_spo2,skin_temperature_celsius,muscle_activation_emg,training_load,hydration_level,stress_index,sensor_fatigue_index,fatigue_adjusted_load,physiological_stress_score,recovery_index,cardiovascular_load
77.91020728595807,90.1115458731183,33.51645601249072,0.7406938767063602,191.4416954261115,0.1899965092022845,0.3616908113002529,0.2976645059293142,248.4270931093952,0.47333803335110247,0.12127651764469427,14915.262173823598
81.78029287943968,94.69302996360008,37.65184659286154,0.9647700191063018,176.82155559485813,0.7051889789173547,0.9816094273320144,0.1924110378871393,210.84397462768328,0.5331675448012546,0.01296882916144218,14460.518603945624
119.2134291748638,91.71693993128493,37.25963167022359,0.1689578325366838,284.9331070117999,0.3234673347304966,0.8271867142453218,0.8839018149601086,536.7859974417527,0.687210720285869,0.05589945294908547,33967.852772325095
70.38261137501337,93.8789852895173,36.77348149876596,0.5949895742793576,100.2214397533513,0.875187213458729,0.7747235933045602,0.4496616631129225,145.2871790324148,0.4617647728695148,0.19715903063377732,7053.846645604441
72.51034482865363,90.84001714520626,33.6478212789019,0.8411077483833885,133.88623122484705,0.0819687775934905,0.6417370448140233,0.7192878001522802,230.18896395324683,0.5194616195216137,0.02936637649362598,9708.136793922513
81.78536366113097,91.28577260796878,36.73947201021707,0.6500928980789471,228.71862497431417,0.278628333089757,0.574642070621839,0.1206884678462404,256.322325390363,0.5134400561249614,0.11851677082914756,18705.835919598117
178.95607639232992,97.13914584083636,36.21779398126786,0.713363081898104,262.06282248058767,0.390515697684394,0.5085779218687151,0.8156217710403867,475.80696587604706,0.6058673273662625,0.1919080356989535,46897.73447942564
166.8700643770352,98.37729098622655,34.85175785939305,0.6813248737649626,197.86647336262467,0.0882781929684094,0.2854477871998655,0.5969602868455279,315.9849000582901,0.4659066775226374,0.0630793781275742,33017.9911480781
73.66133171602051,96.12311288840397,34.352177208821544,0.3600228842234306,51.84565269357518,0.4549350717974446,0.1001432877383511,0.8369393582910502,95.23731998911666,0.20170130423348853,0.40937637800016563,3819.019821095034
95.97386685854504,94.33080203602132,34.32829562035049,0.6921557453074728,327.33130561450747,0.0716506142314846,0.4063274730467253,0.1667455686259366,381.9123502982688,0.41354169053611445,0.04253700120855973,31415.251143680456
174.68959548280776,99.36342753398228,33.60600055861666,0.5174025376248306,231.67985184721857,0.5455743467454452,0.9330940731098544,0.2677516655395416,293.7125180512656,0.6537605283153747,0.03650215735648972,40472.05960070744
127.44414276429168,99.24747475864362,37.61573092237162,0.1211521805364916,83.35362847368113,0.69244035251813,0.5607431960154171,0.0313374606767262,85.96571952823756,0.40547504088688013,0.3041591361970717,10622.931727121546
127.4772094260313,96.22515868412717,34.59336245294625,0.5420268722211959,191.0638804703457,0.0804432002093342,0.8607020325421499,0.1310557434216674,216.10389936641548,0.5863454849280816,0.011205574284965152,24356.29030446847
117.3889638914366,98.68323963650369,37.93935297343925,0.9626646475023451,332.11232569125303,0.3660153875918759,0.4665928734356195,0.3451574641359801,446.74337383514865,0.36436907235966476,0.19523521617373055,38986.32180847153
171.62694769970528,99.27422836482762,32.86939195584408,0.8109534427903347,138.9130636227432,0.4235240923010226,0.5642179770333655,0.0160364000306457,141.14072908048004,0.5366975927267905,0.18456418571804725,23841.225105186382
182.41150004307437,95.297749152568,35.83732295826387,0.2948415105395056,182.9196517282772,0.779336265319487,0.1107431201911856,0.3743370629601962,251.39325691394248,0.552072927161374,0.6930301356198613,33366.64805911178
140.49327011495438,99.42334494935037,34.62999665368612,0.1897867036343202,372.5978790187748,0.8292866775305141,0.4660035143530129,0.5993003890163725,595.8959328614018,0.4104555888839295,0.4428361713951608,52347.49446124382
183.33258959029016,94.57924579860898,34.80721948180359,0.2515671541090269,54.142550325789344,0.695329406452567,0.1776198194552022,0.0994994142566156,59.52970236956472,0.59644909344848,0.5718251228165692,9926.093958249568
159.60926335414808,95.83195161883046,37.16749631109839,0.6208305829230182,137.44685924319845,0.5143264789098588,0.0920804931236197,0.121442615728375,154.13876535334225,0.4628284860527042,0.46696704310530407,21937.791954148182
154.15575044352448,97.99578644102004,33.12047770758396,0.5257850842894373,353.8955870632247,0.9286063295770196,0.1035435719527839,0.7144961527843495,606.7526225072576,0.38510241804245593,0.8324551132746509,54555.03980238306
122.11576514418768,92.40227166395545,35.65703073469658,0.5386964263838095,70.35333391409671,0.872873285767126,0.850805957967449,0.5578538491301954,109.60021203721747,0.682314626413586,0.13022749368583153,8591.251201364448
115.80173376026607,96.60532415436488,32.602642507171794,0.9178234896726152,84.86928056108728,0.9392184948776852,0.6085123425253467,0.0704399859702603,90.84747149311634,0.4646561556384222,0.36769244841653465,9828.009831960355
118.37370639079592,96.20278817100842,34.253892412958,0.521275654168882,260.14615425581667,0.4949116047766605,0.0569479486984482,0.4807814179491133,385.21959117293693,0.31890310643271114,0.4667274040975726,30794.464482572745
72.25971449411804,96.2584666605061,37.39855769220954,0.6748291853948553,239.90236288057537,0.9947536880619716,0.6102489782898048,0.8052705972072509,433.0886819088469,0.3465120198948817,0.3877062662721382,17335.27624821468
172.62169987826582,93.70320175450522,33.842899701139714,0.5217218239376251,100.49061504453928,0.1143231141191252,0.0218067931243955,0.7534497102421055,176.20523983189835,0.5442665634654518,0.11183009362019278,17346.860790800805
77.74947686698987,98.42166030061384,34.579296548749085,0.8076785974392519,435.25859915887065,0.0326550345942026,0.2044037747655361,0.8976140083423853,825.9528150153561,0.17605501305970273,0.025980222258048427,33841.12838646103
142.112496968681,97.49986984379976,35.64153368135924,0.6518097763674039,411.3184286184243,0.2570062322224322,0.3488667217951773,0.9467897767251592,800.7505118130056,0.43789251049514555,0.16734531050606222,58453.48894019846
55.00713163586007,98.74701984326713,36.003468971799435,0.6526392462753072,470.82290483605016,0.9695720518365584,0.5108523649637979,0.9095385699133888,899.0544963830988,0.19079474425600426,0.47426387615305043,25898.61750349463
188.87586213227652,97.5052398069675,37.03472961863699,0.8871188290463806,419.1552567713887,0.6096954551449841,0.2668037820922513,0.8993665289209269,796.1294651328324,0.5517463650228637,0.4470264017878458,79168.31048997177
128.36843244748405,98.886932147848,32.13381022939186,0.486594211168608,168.26642354882375,0.6393908859030016,0.7047842934477269,0.9758318897827072,332.46616562744987,0.4622575375153251,0.18875823214493848,21600.097024506922
121.83255266336896,98.20627393419036,33.18602562124561,0.6305548457578829,146.05154659671905,0.6497907275126247,0.4788328158316816,0.6310141935045311,238.21214548253715,0.39554162251352243,0.33864960375643766,17793.83274231126
108.39102528478196,97.0593661771162,37.12739101364744,0.6436648905391572,171.42505398099246,0.4337278828959777,0.6091206222132969,0.1115499073468573,190.54750286950218,0.4292303739269676,0.1695352849951238,18580.937360498865
76.58828807825722,91.81507961621496,37.43293686494796,0.1464959582460907,178.94632934921768,0.7917328929996529,0.819346148721771,0.7488391884618512,312.948353397313,0.5555446996453929,0.14302959630404127,13705.19302274458
58.166967932355846,99.06354211095646,37.0195626747857,0.6715221095274486,64.4969122026678,0.3887951189614026,0.5265156165216303,0.3260234522779849,85.52441818025166,0.19535358637549777,0.18408841720083913,3751.5898238285486
91.25521398378656,94.603213900574,36.07326939434358,0.2021990894591444,235.3818559531095,0.4671741333524465,0.0289927449989798,0.0569528672956811,248.7875275590181,0.2781696709088436,0.45362947283403965,21479.821632901832
164.60132947739885,98.34454214891696,32.74363516558664,0.2506307776539862,181.4795615219202,0.0928594729435212,0.8544229603276182,0.0076978029547127,182.87655542682361,0.6308570829251221,0.013518207176655448,29871.77709948346
170.00487763350174,92.28987185300312,33.844773038201154,0.5391531183313584,345.5700379313945,0.8059056470189019,0.9177956261106798,0.7899327210558801,618.5471183099247,0.8477592239788957,0.06624896912705634,58748.592012331275
164.2196642824461,93.70710657037785,32.53926968060383,0.2232686114283653,108.11138182985044,0.6439979536304735,0.4960328899414148,0.0797970465594574,116.73835079933428,0.6615085379518364,0.3245537875747925,17754.014829209384
114.69107864522958,93.57640549588912,35.310675702354175,0.7618726229563028,267.3290134474995,0.8892140134241908,0.4280928766249438,0.5811479149732605,422.6867122243725,0.4982207761989791,0.5085478284822176,30660.2529054588
90.49477343033983,98.59728783502231,37.23677795047666,0.1677892889506643,255.60254974209255,0.484741357399692,0.1142946811423835,0.6521139786237482,422.28454540078303,0.18153129376871507,0.42933799851916804,23130.69482712783
80.20895420314508,91.04554458151024,36.996552010716286,0.170815291247708,261.0564937487545,0.3290628169009095,0.4157889015772531,0.026284772337607,267.9183042541944,0.46832670718804903,0.19224214971176357,20939.068351527483
93.61810697400357,90.65842164508656,37.92148228530928,0.7414462026626947,402.09873584008704,0.1942329296955817,0.3257681196433685,0.6703200658307816,671.6335869188882,0.4927015199684724,0.13095803341582946,37643.722465988874
106.32026916428543,99.05951919194644,36.68894145955143,0.6350264694213571,292.0270204171885,0.3420950057594257,0.166973873672554,0.1056428488702418,322.8775868011486,0.2303665303800207,0.2849740774837397,31048.39141399976
73.08206461900005,95.5383608250222,36.290633681708535,0.8401800790146495,395.0202534893229,0.4189408420801276,0.5509126399478858,0.8178740635904725,718.097073411174,0.3527796889137126,0.1881410367877742,28868.895691320475
61.93014012869647,93.54265721327626,33.71995549068352,0.2095767978829105,287.0373874463364,0.8523554603874851,0.1958721850791374,0.7444883899492662,500.7333898815032,0.2731539394498578,0.6854027338972543,17776.265626726556
146.27914146119673,93.75959909640665,35.50299963575254,0.4720749176565179,134.2152641580018,0.3471668396742926,0.5138573592691225,0.2804298615735768,171.85323210689126,0.6120928693026308,0.1687726042134538,19632.89361202023
122.651159611422,97.88551842008256,36.65984044623573,0.908401166948946,332.637564457146,0.4580146243159458,0.7955633625022697,0.9364464228117572,644.1348217858557,0.502622517783785,0.09363496971993816,40798.383010988095
57.0197617646006,98.1933375229886,37.95198205408911,0.8124165180370251,332.987263405026,0.6295673951687717,0.1998209203413641,0.969235997267109,655.7305057286419,0.1200835159584355,0.5037666588492324,18986.85443000089
86.02651564199238,95.007349061442,37.58254095907267,0.398521226506047,400.34561964021,0.4421037462077789,0.0349988412639856,0.7040996843974501,682.2288440787834,0.25233110139538717,0.4266306273720395,34440.338710181655
72.79440042215698,98.94054605203888,35.19408636772777,0.3907392261567421,353.49848211509084,0.2106455976355367,0.9451614571778968,0.063167730903031,375.8281791079668,0.3680062004552583,0.011551497626223902,25732.71005571062
123.1971424695975,93.8024116641339,36.37408052775781,0.2373876820005463,329.5100330817492,0.4628306571988078,0.0106074233703193,0.3902891008393337,458.1142076107642,0.3914032963162712,0.4579212164691369,40594.694490734044
151.92149818904687,99.76482776200872,35.882957366761744,0.1314152731657983,191.61003824209692,0.9855404806740392,0.463328901546273,0.730961708161116,331.6696390963569,0.4332756657433874,0.5289110923339508,29109.684077799928
103.00896989977136,98.02675812526287,36.70664925242438,0.9531253710410472,54.301183766630864,0.5909866849681349,0.1112165750022153,0.0433456199273257,56.65490223978311,0.23484493292089734,0.5252591699940657,5593.509004138832
171.05484893497413,92.8721257112736,32.704772436778306,0.2508528305319665,118.10356641118986,0.0525914712406785,0.9431630524604392,0.3283573523272054,156.88374077836843,0.8409923576312124,0.002989138691934765,20202.187711147766
129.09363700511898,90.07219947003718,33.90763597824094,0.4693038349021938,101.41180396612536,0.0126426014000184,0.8329977422394179,0.1957838068604048,121.26659300719447,0.7676497093258579,0.0021113429777701686,13091.618609237272
131.18064373042708,99.122296219996,32.89630728062737,0.7742040211232836,68.0088383325527,0.6573930394946632,0.3042045181350037,0.7026990328172319,115.79858325186098,0.3433507486861324,0.4574111066898837,8921.443191822807
95.0069903788784,93.63189196090848,35.04670512170673,0.959400739008332,481.9676542625757,0.3535482225634551,0.0603658435150573,0.661154269719093,800.6226267447732,0.32788077390228426,0.3322059858851629,45790.29629145512
189.3465203770164,97.4891764047852,35.27337526500655,0.931987082605836,305.94609613529474,0.0168933550715184,0.6427419004014251,0.9082886234873288,583.8334546553435,0.6664056223657525,0.006035287928694611,57929.8287261502
177.03752903955353,96.30400926036,35.64574145530364,0.633943983689193,426.9032306043457,0.420062669579447,0.9791532397514886,0.5594021158982408,665.7138010882113,0.7664381756757743,0.008756945762072393,75577.89308519608
124.74967507892303,90.37253880614196,33.850130423793864,0.8260432912402548,151.6940445476716,0.7485589856706767,0.9606008100125212,0.3020488654893402,197.51305860478527,0.7840309427659303,0.029492617693273427,18923.78276872971
62.41216027295454,95.13652671821328,36.30942796988771,0.2025443648151867,164.0777850162566,0.4198387823550766,0.7500840749486621,0.539418192753467,252.58432728071762,0.39296961582196555,0.10492439766469627,10240.449015665985
101.59927816991012,94.26443805714302,35.200028689355435,0.1254564354618817,85.45193195176145,0.2441368208069063,0.4568163262063198,0.8081187549853212,154.50724081170932,0.4473588155310981,0.13261113523420473,8681.854604523243
160.4060402543393,93.65025304038824,37.59777529140248,0.1451296207646292,433.7284843753464,0.8748819674421442,0.1868008410450355,0.5880927915139572,688.8010795107616,0.559140879541395,0.7114532801088164,69572.66872416539
145.99018509443022,91.26544458713408,34.391262286192294,0.6937583790346814,424.78511387806446,0.3245786591652791,0.7059066693266582,0.0014257282875326,425.39074203104315,0.7437707973709746,0.09545641893940432,62014.45740041725
169.61965929326885,99.49537437113652,37.46367504423563,0.4008217367414182,189.35625395815512,0.2845608397616026,0.084543335380123,0.4460572256644409,273.81997926094107,0.38020160467454384,0.260503117249588,32118.543281431965
106.02572801157336,97.96300185967664,35.26120627024474,0.4381834130235666,104.457072536892,0.0328354290838776,0.6628030863757358,0.2390256368036691,129.42499081866967,0.4111794465051966,0.011072005344611927,11075.137161681701
188.113770306518,94.82451470381118,32.06140313845255,0.3691578786479588,391.4436878158449,0.1993238589505738,0.5507657263721529,0.7596949977999118,688.8214993698925,0.7151996666541773,0.08954310899236047,73635.94797772619
99.4712487455498,97.84061779828478,33.49245959774709,0.4985834554953015,258.14072448306774,0.1191000576093556,0.5394265145762364,0.6455339908801486,424.77933656731534,0.3584113443487989,0.054854328647311955,25677.58021641167
59.51142928518303,98.70055193109285,36.64832973565605,0.5177216684788588,103.6848112708156,0.6677560251985356,0.7441861072315932,0.889964607500909,195.96062363725284,0.2755440566696918,0.17082126822559576,6170.431313890691
112.87789413645,90.28631193835652,32.28018690731068,0.6286301015117375,251.32092018713035,0.5823705631583486,0.8925114190941515,0.7732611520799886,445.6576244728336,0.7309992992372882,0.06259818539523068,28368.5762231581
156.47676854924214,98.07370939792489,37.469581319361644,0.4735703161070191,438.0711730359233,0.1798481484091991,0.2255031025209626,0.57189896766037,688.6036246569353,0.42623047514545287,0.13929183296027417,68547.96155123718
125.21116223423884,98.80131353433642,36.615120739975566,0.7973449899891593,165.83505358851744,0.9520584182972106,0.8871419986941438,0.3612227352342863,225.73844524348615,0.510176672702025,0.107447410215438,20764.39979899555
121.9701895975717,90.53120624199,34.4939660090027,0.7060524212042477,207.7921773293084,0.1695201603294623,0.2109692897116993,0.2975135051137778,269.61315634177464,0.5461353863789701,0.13375661251294227,25344.451265747986
78.70957285168032,94.3369693310696,33.43693228742078,0.2606796140857433,395.7114999408424,0.4720778346800132,0.2264606037580548,0.6487334824453981,652.422799341157,0.3082148830413392,0.3651708032175822,31146.283132841425
133.7047947619726,96.01025877488688,37.65142983702997,0.2354036956958946,426.36618185453887,0.671956140494912,0.2158663976594885,0.2450969175286361,530.8672187655403,0.41781220408155983,0.5269033890611022,57007.20283830701
78.07756063162408,96.61303962286868,37.69973005599323,0.523684199500932,262.6071479842764,0.0890161247338962,0.5941593578796515,0.6839803325601894,442.2252723952447,0.3482819282357721,0.03612636122106947,20503.72551904022
82.94315090501614,91.322115228203,34.59845661552075,0.3972799048571619,200.2289289545236,0.8622516283024872,0.0695077965151932,0.3779881162099616,275.91308462078223,0.36424046946025224,0.802318417577544,16607.61826982481
169.2821565716597,91.27949940919764,35.29090151449475,0.4100516696282155,291.393295654261,0.0841100993096857,0.2283201737969427,0.3858553767217361,403.8289655231241,0.6691237317030841,0.06490606681722015,49327.68549887654
154.00380448883263,95.75719305331204,36.87343723165248,0.3604646176339714,415.0799842757179,0.7608075414310771,0.10193190678057,0.1555400915004873,479.64156300998394,0.45141165110146725,0.6832569780399699,63923.89674562538
80.13227982571948,91.77041441059906,32.76233759214605,0.6127370655129399,134.6828761255755,0.9307257945453972,0.3932464647920377,0.7893829606886293,240.9992436356422,0.439562924347302,0.5647211661496593,10792.445917427329
133.4844852226176,96.06316947374532,37.53036452318639,0.8568000790403365,264.4174435348717,0.7796343561334791,0.4016451772120418,0.0567151382822255,279.41391540918454,0.47130337209762285,0.4664979770036518,35295.6263341329
121.9896297311398,98.3141662193031,34.774965644074626,0.4003433636282136,488.79585549509017,0.5097768447035125,0.4386586844071036,0.4523141747634775,709.88514950116,0.3807141676893809,0.2861588046646653,59628.025425961765
164.32145137289413,98.88642669362956,35.72977746825928,0.6299150762622066,305.9684292949227,0.8133433290451083,0.2429975928608297,0.62793749329946,498.0974778151496,0.4303225440976804,0.6157028579177333,50277.17637602644
113.45136172836035,92.21276591066184,37.71682308949504,0.3457259161082734,136.65924380607817,0.9566005677673076,0.2259783846551835,0.2813385860456368,175.10676222854613,0.4748723822100042,0.74042951670302,15504.177302567563
73.34463026722521,91.94619254324566,36.51079366711225,0.3138590958043784,284.1839441071694,0.6028447467863508,0.7188779803941351,0.4734378678382744,418.72738467913905,0.511849756128383,0.16947293272536518,20843.366308422133
122.6823841405557,92.46477909576735,37.64189691943559,0.8239568022236816,435.2428995063727,0.8700479966063919,0.4985862873912121,0.030868132542461,448.67803501650036,0.5764509090473291,0.436253996126249,53396.63659169009
127.90394095519284,97.04423621477488,32.182384488869154,0.34076067161848,91.0627561770104,0.1869095348270772,0.9033410137067946,0.3379014257750631,121.83299132422916,0.575798693354243,0.018066486164919845,11647.28538928146
124.39416062924238,91.73373156757508,34.821493913959856,0.4722802793608583,444.4185258893145,0.2106879170303014,0.1571824716083735,0.3359636485536521,593.7269953319243,0.5010637843440041,0.1775714694934587,55283.0694960865
159.60588429456405,98.73384164371048,37.37479314505305,0.5801577275210621,66.45641556333119,0.1516669603576202,0.8001582366647964,0.0202493797900921,67.80211676156127,0.5880744024622138,0.03030939279755725,10606.834973032504
181.7090554300982,96.22315356454264,32.54502908636849,0.3543630453563438,117.82958328341164,0.4853728951691942,0.436049220621891,0.7292519731284146,203.75703938573844,0.619784868917174,0.27372642251967627,21410.702280150817
99.82997526121576,98.14066905951267,36.75330219893211,0.521258914383608,285.92869251863806,0.5879337330342645,0.023995945800073,0.8270098816469236,522.3945466779365,0.19583266663699528,0.5738257070423397,28544.254300607405
161.39605689260458,90.72348509897486,32.80033170255956,0.2904155258403721,376.0841016047272,0.4281280507101417,0.7651902029810298,0.9830164307061484,745.7809528095346,0.8235073536303901,0.10052866068537575,60698.49105900063
119.2200505555226,90.25632249884424,34.03828726301651,0.7881073462513918,270.7067863208696,0.5076838246350844,0.2977198480585169,0.5873546311379894,429.70767094691445,0.5722645261951267,0.35653627350296035,32273.676750897128
122.24750601483734,97.6294887851156,36.05633603007952,0.5040598937304138,122.4216550410883,0.5006966277953099,0.5039657798253935,0.5220484161712585,186.33168616035263,0.42163723191395774,0.24836266131250176,14965.742010981785
81.9828515776749,90.64834218786191,35.32707533414579,0.7130239291651514,380.398252787991,0.8762966404914849,0.714317970610373,0.2821786456492331,487.73851656704096,0.5750755225924056,0.25034220260291973,31186.13349872472
76.94655426956962,93.63392479432126,36.63000863786448,0.4359744911105987,359.4206430143301,0.8104019408589833,0.4523741770233006,0.5733767880015584,565.5040968473414,0.3918804866849568,0.44379702980481517,27656.18001330576
81.40203735870561,95.3881936724967,37.9925002063479,0.1070604291165608,227.3599592727403,0.684544433031324,0.9831622899114084,0.0059334967460564,228.70899885126863,0.5116306050922549,0.01152616070614073,18507.56389859339
114.21847648230056,90.68348371448197,35.42446245039992,0.7606576315207971,67.9125574499393,0.1907922654758387,0.682229267576584,0.316537731334959,89.40944431429816,0.6599586232550693,0.060628197940980094,7756.868845948778
176.39879144251125,90.49447436679348,32.9932117561632,0.7649446936160615,401.4199309057224,0.0733840166520085,0.7223043293295386,0.3822559146564046,554.8650737554001,0.8619975528055281,0.02037842372067181,70809.99067270581
102.6556413811979,94.29745381075666,33.85731901641591,0.5614155581049485,104.58711705432364,0.522095236914789,0.1922917232310798,0.8174476505069532,190.0816101636762,0.3701413827870654,0.42170064411770536,10736.457581422013
67.00548557192822,93.04110007342835,37.62064369713801,0.4915107346937276,79.97993931535765,0.6070286543845467,0.907630953334707,0.6213020891720988,129.67164270384706,0.5167937157792948,0.05607065810401621,5359.094669838892
147.73520126453082,91.71789109477768,32.88364285098996,0.769363133457201,494.6305738825175,0.0381536059353772,0.6228292369611795,0.5819372139940333,782.4745120039796,0.7104301658620309,0.014390424663328688,73074.3473841241
55.77903927455068,97.27593343304744,32.18471941316448,0.1952010162046603,261.74366872068885,0.2578700035480086,0.0791446682782094,0.1574529571898466,302.95598338648085,0.10775952696753378,0.23746096765830077,14599.810377436284
112.45004348905688,96.72234149800605,32.09289475482509,0.3783419909129707,164.6414578399304,0.0996611527312486,0.366303145262339,0.8756993729425655,308.8178792307073,0.3785420370271657,0.0631549590253219,18513.939094201898
121.4006776380749,95.57764759098062,36.42050132547936,0.2558832676839209,162.00427333693636,0.5268029188559366,0.313083169351352,0.1932359914848671,193.3093297199847,0.42349545314903486,0.3618697913969768,19667.428563367983
69.43418169127588,91.04822640940766,37.16558289547218,0.7146679768198184,135.01123539516294,0.4985692169635553,0.9187237493338304,0.6397477120376796,221.384364338599,0.5871838594607259,0.04052183665236582,9374.394648791362
68.91062861318267,93.71519575243572,35.39338595340772,0.8357328415811263,452.4026192331111,0.5025316842570751,0.3268787897653196,0.3149403056812495,594.882438425385,0.3279674452390905,0.33826473548839464,31175.34887760401
58.98816576255159,96.09222662769356,33.468117128739635,0.1503690015358063,466.3983815935693,0.7360540144827896,0.8221829058167339,0.9576564743886976,913.0478113710614,0.3757410861730589,0.13088298601725729,27511.985044827255
159.9200977743473,98.40449581638804,34.19027416085668,0.8490032024539408,408.6102045841834,0.7693791464631726,0.5651975211777511,0.6832766104223897,687.8040001564634,0.5284106380896193,0.3345279600363335,65344.98386869867
105.69231397279722,97.00188259294052,36.78192592855391,0.1283114757214234,234.90495724631293,0.8350299612668469,0.2910788813756463,0.0527833505156911,247.3040279425185,0.32754398875777596,0.5919703742261438,24827.648495043813
87.6964454217742,95.87885691929782,32.14925529208763,0.3830914878430218,92.6736974798456,0.2978500112861028,0.7829883572657359,0.7365572029698445,160.9331768844742,0.4555001293043493,0.06463692023761626,8127.153853075293
143.75498416895775,98.90666675891909,34.22638840882119,0.6354715216073232,79.88738201664572,0.6460102909466989,0.5135220769124835,0.2361719824828773,98.75454340288391,0.4499008446948587,0.31426974463291235,11484.209337102386
70.46193722405701,98.92795939589884,34.81499629140439,0.6086559306015437,140.38304722300234,0.0156473179420659,0.6543933648305748,0.745751329984277,245.0738913968019,0.27423906367086204,0.00540781690338357,9891.661460749021
66.95051255398833,94.52998100829964,37.30020978818547,0.6988643133744287,298.28789732279813,0.8852828290969004,0.7658523040370093,0.5921072134710428,474.9063130187366,0.4293739294711925,0.20728693470863727,19970.52761441278
96.9311311383695,93.50470202317928,37.15509319646665,0.81390671044599,226.73758259241947,0.3724669478256732,0.4696483564026922,0.5430125100143456,349.85892643051415,0.4601903590592531,0.19753845796501845,21977.930352262694
61.4148972229599,90.03387847982638,35.445622281542526,0.8523316657250322,249.70767844087797,0.1458892464832872,0.5442497144956385,0.6276247009230531,406.43038544052393,0.48153691540849386,0.0664890657367743,15335.77140723044
183.32992176525167,96.81833032032858,37.10769327329918,0.5171603323226959,141.115353863621,0.2799875494540973,0.3423817660091883,0.4413675603197896,203.3990933220712,0.578611826128915,0.18412491781141851,25870.666783693443
61.01695549620516,97.1609348248996,36.98984024101598,0.105478777878031,449.7384863469674,0.4001495539058451,0.3407634893488872,0.9377922867867816,871.4997699143157,0.20522777360707062,0.2637931956554887,27441.673206363586
147.7136524056179,96.3377903954325,35.53867760466847,0.5174467586349689,183.80468639302052,0.8431991416236851,0.319095339872988,0.8434824928142858,338.8407214627535,0.480472914892469,0.5741382249466636,27150.461556382237
93.55959095728292,94.57631874545174,32.51584241167527,0.4260636984848376,361.76377723209526,0.3524627843992398,0.7861154478031324,0.649580944617839,596.7586333750371,0.5129458871029078,0.0753863448072925,33846.471020996454
111.42588838418116,94.09518480278714,33.57490672829886,0.5390321336268391,397.1974708795177,0.8932065885508419,0.93614698659853,0.291653185394699,513.0413784922472,0.6253739029935097,0.05703393226901819,44258.08105670019
66.37652548940335,90.91896092077106,32.333831955972215,0.5658832801158445,427.9368077033188,0.467892528132025,0.5002645074774619,0.5228275273109287,651.6739507201773,0.45646429596859583,0.23382250299367302,28404.95842437324
184.0626609156865,92.98041698346914,33.62440239453039,0.7889486503647696,216.86188889518135,0.3460024129722764,0.0580633388910912,0.2961171306119089,281.0784091739011,0.6107723583242782,0.32591235761073184,39916.17632124905
175.26125775393473,95.82553837041992,32.66347512241196,0.1113920456357459,424.0106444316632,0.3998586951372155,0.7975655525345219,0.4391157742826395,610.2004068653539,0.7210683369483266,0.08094517401436928,74312.6388441497
88.06872362940408,98.89931055890098,36.67037368611927,0.4605358366947452,424.1907376010939,0.7602056245291603,0.4954715630653333,0.6722525000742134,709.3540214617539,0.2796199219681431,0.3835453554926394,37357.9368359438
188.49822113856837,98.92112015691082,35.3330538703729,0.6544887059344192,296.4818499459233,0.8263592101750041,0.527436084929228,0.1084812575664156,328.64457387367435,0.586286089285819,0.3905075436150909,55886.30131467849
90.44428105270003,98.82048186007698,35.777847405394745,0.702010095056756,324.0071874635171,0.3302152251600274,0.4898941421308249,0.8690471024768169,605.5846949103494,0.28735710888064514,0.16844472071171857,29304.597126045206
176.80315911799124,99.78269485998987,32.06719583153423,0.9021064969283208,148.97044122376155,0.7558741511783872,0.7856017924230225,0.3256447769498927,197.4818873282005,0.6031846741634707,0.1620580631664155,26338.444623562074
161.83261769306517,96.01548506379706,34.096911093848604,0.3533984764553761,415.5811178140919,0.9620753780372232,0.0040252788539707,0.4319875924251573,595.1070043559571,0.43749024402066683,0.9582027563620841,67254.5801596646
124.7729636441574,96.22166924173608,34.388259044624576,0.8937888316895167,189.1652497129785,0.4155595321233165,0.0350876112162999,0.9011312392861718,359.6279656167129,0.3307490044159435,0.40097854082294604,23602.70882517542
159.55445160225776,90.90318560299072,35.03823004127087,0.7490222682391392,409.9761718631968,0.2394647795344667,0.6539436721799263,0.3826411550655715,566.8499278142916,0.7792759267072988,0.08286830224794108,65413.52327162534
130.36128628775424,92.13838889495264,35.53563056742252,0.9173188509045676,220.58902537198347,0.45272542662994,0.3313930876965162,0.0075410927159986,222.25250766444537,0.5588618743382112,0.3026953496203216,28756.26908845382
94.69045746031868,92.78713715141149,34.7153870206135,0.5752525797029121,346.4756151614772,0.4298176981413819,0.1528888456447963,0.7957277149698383,622.1758647066886,0.38007415156372715,0.3641033664348425,32807.93449848561
90.69458022050212,90.822332215106,34.254234832281625,0.6158151309453082,481.87707711753256,0.6208741875568012,0.4005893573198111,0.6113307533028527,776.4633536711706,0.5015572741496898,0.3721585957869623,43703.639227057145
124.88125631807368,97.36082144337084,34.761961908667,0.4955432613128773,297.0224053334037,0.5855140424810796,0.0999369065686195,0.8090185422666974,537.3190387167821,0.31630681865880994,0.5269995803230333,37092.531132651566
56.09460657963879,97.45503085352772,33.52330406576641,0.4241059439401035,129.4761616583553,0.5266893589263512,0.4274938719943202,0.4824754444178325,191.9452302959854,0.20782006062271094,0.30153288554071905,7262.914349667153
100.62594719746464,95.88433556416425,37.97687145274515,0.6228225084216505,172.81477738973155,0.1871786089884902,0.6699263421613231,0.5566956708208533,269.0200158164646,0.4597475826204104,0.06178272813798641,17389.650664560733
79.61524978305964,91.99728280111236,37.671131478557264,0.2808766295121156,346.6084606804223,0.9869036664352556,0.2270318342822687,0.905987906258915,660.6315342639036,0.38135104963813493,0.7628451167845632,27595.319173993626
165.3300013133156,95.64818313960195,33.79281838449965,0.8143901263267785,81.74043285679485,0.9842497664912904,0.3763706272982676,0.0247741269343837,83.76548071606057,0.5705952126786744,0.61380706445879,13514.145871564879
175.15255165508324,95.7495349322964,35.532133846016094,0.9269668461330188,483.33917406401855,0.4177361945115626,0.9015856262098628,0.5924746475636149,769.7053808712867,0.7542350926046619,0.04111124599233037,84658.08965217328
142.12165913883206,93.48702810842978,34.8607713434023,0.5329460147286865,311.62320290143003,0.1866839259143167,0.8803481958519901,0.1677444061396027,363.89625201145134,0.7179024308550991,0.022337068541081414,44288.40662250814
184.58875310168227,97.62653489911484,33.96254903600983,0.2454544546572677,278.6707879520664,0.7644001113893061,0.9128586899643872,0.0562095578662221,294.33474973308375,0.7292098525204361,0.06661082709783245,51439.49327393524
107.03850868446428,95.24688412093478,34.510213460792045,0.7643727075920491,499.2364200802813,0.1198406615412038,0.1084983450704384,0.2715989235803977,634.8284943862169,0.3294776345440711,0.10683814809183666,53437.52188636404
175.0326223201559,90.20510919320392,36.47649293943736,0.4140954417717198,344.6741112773016,0.6624968731842784,0.5690465748936742,0.8301169113081226,630.7939199386874,0.820662092587213,0.285505296620996,60329.21354273532
88.92653776419117,90.80846801643254,36.16613533397162,0.3630965642583701,404.1955096411432,0.3324477182476383,0.3195490628784065,0.9722213709670056,797.163022163163,0.47242012584370036,0.22621436142554094,35943.70725221962
69.6619993167765,91.92041993559005,33.1136243837326,0.7459500292691422,132.5589142859818,0.9435035356332392,0.0313996298127411,0.4532846463376582,192.645834867007,0.2954629343127609,0.9138778738873431,9234.3189964227
153.5094497053073,96.50878837495776,32.55996872161896,0.2731088408275193,258.5985004862086,0.1748369154662111,0.9414256718178796,0.0372312017522917,268.22643343065073,0.6792176949403249,0.010240954864867488,39697.31350425552
81.85376985452534,99.59439595741163,34.2866559560497,0.2937974747758584,431.5658730252849,0.1845350507366441,0.026057885985593,0.5147764220004536,653.7258089987431,0.09949197592297403,0.179726457424203,35325.29364767898
90.96098159305322,92.60397358745072,37.49105802311959,0.5367279291339042,453.7418589193061,0.5181849423431099,0.9591934864585216,0.5170483546901332,688.3483405275758,0.6164110834987768,0.02114532086671429,41272.80487715675
93.54588468157084,94.55915937022114,32.35277609926782,0.6756550591888557,307.95033090030967,0.3454463858055134,0.9300268378881624,0.2970909687803208,399.439593043703,0.5565941064651718,0.024171975954917574,28807.48614205195
113.86652022629936,96.07266670101488,33.888713742301746,0.7963114118313257,215.9048407321151,0.4869407132392482,0.0833025831117963,0.0292937050053706,222.2294934457532,0.31735616098158953,0.44637729400411835,24584.332914179326
104.12641987686987,98.77832603575814,34.49426785489909,0.7813106809726242,239.24196053099445,0.8881779103783827,0.0412697473746218,0.8654158817884438,446.28575276472105,0.19459795694347315,0.8515230323933474,24911.40883441586
92.81810603467628,93.97953056201334,33.22680032118545,0.4269215607059595,382.393692764664,0.0607811686294034,0.6165878380712464,0.580231287059956,604.2704772811144,0.47781581713008603,0.023304239268755696,35493.05832202201
63.3032744219162,92.9680020505184,32.52220139054933,0.1987514211224081,470.08594072248377,0.532351126517139,0.8783356058875871,0.895866939157868,891.2203935786823,0.49922531532608927,0.06476817726276819,29757.979307440022
121.623739659181,98.71187046350316,33.0026005265938,0.9059681083427434,357.67881207974256,0.6310657781676963,0.6858724552314401,0.9986478849342209,714.8740012489621,0.44184728899748854,0.19823514348327909,43502.234721991736
104.0228996850274,99.53111085281932,37.40734413786674,0.1483274691454368,227.1542827500596,0.0599792721915164,0.9112451557542998,0.3163220570094807,299.00819272807166,0.4326714264977496,0.005323450961328497,23629.2471675338
82.60526726143617,94.55735814008484,36.4707964909904,0.8456847183343444,413.4468207086511,0.5203463368715742,0.7230344308507957,0.047733789678756,433.18220429170816,0.46211608346747074,0.14411801934633914,34152.885123029206
69.79980624446436,95.76909535322751,32.60019002640292,0.7575096433900643,468.8200500496446,0.3322277640662838,0.4875653632789247,0.2369563625881567,579.9099438178059,0.3171141302286593,0.17024501358796124,32723.548656985276
119.25219936894275,95.12590925267295,36.77583946131381,0.6534407601254327,70.98615520771567,0.1015566034291788,0.186834406294583,0.1519625258782151,81.77339065546316,0.39282085565480773,0.08258233572219376,8465.255133265224
76.24609950729712,97.93717425785212,32.71778263709642,0.6894349612949223,104.70048328322108,0.5545806715356244,0.7478922540260833,0.3223550934061763,138.4512173516556,0.3491977259429574,0.13981408306154736,7983.003466874572
106.05650718630956,91.68141085894749,37.93599972096965,0.6934591719148342,257.7466313426369,0.8950327516051695,0.0266931585868542,0.8527367457319316,477.5366549771249,0.40912504790657855,0.8711415004261442,27335.70745923745
124.28469673675554,98.27912062149063,34.823268109707335,0.65483142268712,458.0340676576493,0.6946076116267283,0.5928520048922216,0.8797079824040532,860.9702931890815,0.4348287931503567,0.2828080964604249,56926.62519393351
133.23740983524743,97.59486569188309,34.14190215284068,0.9813234508317868,131.56151272976973,0.9816106556424328,0.2031600383642089,0.3799561251474085,181.54911532510448,0.365016043212164,0.7821865971833999,17528.915190121454
181.6932086693847,90.76727371928206,37.93510498619658,0.5498400319737301,385.9550032115268,0.1183240730031381,0.408193081817418,0.4882099782764918,574.3820869451296,0.7752655501758136,0.07002500499079801,70125.40293550497
129.5224532599129,98.09473209615436,34.00914170599388,0.6535660060166596,88.54888732113781,0.3025039603514116,0.5203722164409679,0.6638101052502828,147.32853353357774,0.4341513277868526,0.14508930402117687,11469.069119269367
100.3823207082433,94.80236713471028,33.80018288357298,0.4516753129381839,192.6831962133762,0.2038864754605238,0.4860034482382267,0.171635017415373,225.75437995110872,0.43634878564946344,0.10479694533757064,19341.9863973805
180.1944652773097,95.4560846442715,34.54151496127447,0.5369463020492853,155.33429179285184,0.5394343554879361,0.047708341453872,0.9453581344565326,302.180828099269,0.5218337980169044,0.5136988370643683,27990.379648842532
65.56268330830306,94.3550502745326,36.79559579575981,0.583408673458066,59.15337398042044,0.0943126514627475,0.3813358171222842,0.5152553641125769,89.6324672291894,0.3151592380697787,0.05834785945223149,3878.25392489592
108.87046102652104,97.16173876956432,37.42957710189089,0.6646951069139359,204.3208021265174,0.7477652771400322,0.8074987316566608,0.5719826853440126,321.1887631984855,0.48709005285066076,0.14394576427256478,22244.499924822532
81.84185158867479,96.10178576236642,35.03589997494238,0.9739652127650376,132.8585103865332,0.8061118176584049,0.3177854085868639,0.4962351738699511,198.7875763882972,0.2918864263823067,0.5499412443171292,10873.386489347058
109.88665406724128,98.95651230401918,32.26733978970592,0.7885570882290076,126.3710373777098,0.1807699193009031,0.3965637167970809,0.2708860550263747,160.60318916254815,0.3129104754725616,0.1090831282178286,13886.490468442815
169.03573755524144,90.5413440840232,32.75661617592446,0.3820650053271007,186.2399167780789,0.4879576397907488,0.0932449192213583,0.1609554874567291,216.21625336699526,0.6500434404667246,0.4424580690850158,31481.20169480935
97.1201763246408,98.78697583826076,35.192944909909016,0.1839341081627485,166.3278134665154,0.9904716723472566,0.8924261775360394,0.9541380793838092,325.0275139555649,0.42891444706614323,0.10654882383666597,16153.78657155994
86.30104787418453,97.6265255875614,35.601311666371814,0.1341980535742679,390.8670461330536,0.3193841168336851,0.3267560472430308,0.5753700648257168,615.760243804865,0.26199693725449685,0.2150234252649038,33732.23566076975
171.39064936957143,97.54282333035216,34.635819633967984,0.7839974424978716,142.70783193111922,0.031534628131224,0.5969639657164428,0.2340624925720749,176.11038278247372,0.5978290554683957,0.012709591464615222,24458.787984798182
153.34357765040994,98.4913224798851,32.54397253105603,0.7325657410564292,156.03904939985915,0.4589165242987353,0.4236901786604971,0.3122318396207352,204.75940884664797,0.4638536609017369,0.2644781001283498,23927.586088143453
79.357215980985,95.97349300977854,32.132957213267126,0.4232475447705578,135.82276385213538,0.0652551891250059,0.2505014246959396,0.5643411678731507,212.47314102820863,0.2681889902015039,0.048908671280388935,10778.51640614823
170.7835584126467,93.5944502618224,32.027866898509934,0.9462107735856004,240.95216290832408,0.6508834851238695,0.0075914161739141,0.3170824173929506,317.3538571993555,0.5378193139901051,0.6459423577075666,41150.66778870733
159.93578999942895,98.33209456910262,32.97003401332227,0.1499416489639546,128.48474444738676,0.2391767948573762,0.7153532125002056,0.372932132470092,176.4008341840255,0.5756786655039657,0.06808090630064949,20549.309106067543
102.17900613690443,98.58751259190892,37.07809267919854,0.7360249423082632,368.2718266750048,0.7156392360669593,0.8103031373334708,0.4712233309037432,541.8101035188065,0.42526637910293275,0.13575451788297385,37629.64923787432
140.62281728196825,93.3063295485954,37.43752542042721,0.6955886392546562,218.68352275856205,0.6115315946147739,0.2843439098197933,0.6337097434231109,357.2654018567524,0.5400855480195318,0.43764631002367627,30751.893063454416
100.52709636283868,99.00963496038764,32.90952747141392,0.410400256755865,401.3230980679351,0.3352883170794706,0.5755771256984202,0.9817673511979657,795.3290130326532,0.3372715739279049,0.14230403125460836,40343.84575210827
120.86334180973805,93.71994759789162,32.24007878321075,0.2233537151829231,126.42774498556156,0.4201345541831004,0.4570023093769406,0.6901313479368921,213.67949504906883,0.5208800756926764,0.22813209267237214,15280.479756424322
163.67738858667474,94.7787707712273,35.612610980764096,0.4776892703731046,138.94150150382688,0.1265269140490756,0.0216393249451637,0.4297008070431598,198.6447768318097,0.48539204215208986,0.12378895704165885,22741.582132457926
80.38554749948608,95.5501852420529,37.13760592114448,0.2424153364067921,235.84642708679945,0.4086576822098361,0.0781043040209128,0.7413949722797497,410.70178235909515,0.23223381121005338,0.37673975835803747,18958.644167169998
69.2728156582032,92.1988298970735,36.29405888073546,0.1577759373980329,114.60985855186786,0.1907482637058027,0.9776153675237532,0.4891799615470362,170.67470475118185,0.5698109686240374,0.004269829778536596,7939.347604076286
117.6767698587859,91.66545588593802,35.282168878546685,0.9929545430035686,219.1477796580532,0.3907025506881093,0.8097537174356638,0.4326601076907168,313.964281605088,0.6789717469536041,0.07432970785681692,25788.602831884647
91.42246781546916,99.29116352691324,33.634678646652986,0.2943330408450618,242.33680408446924,0.4411435993690765,0.6791277374008733,0.9394316270997966,469.9956622517068,0.3328887032387493,0.14155074486067826,22155.028671916043
55.67844295431711,99.69526523324006,32.7811667592222,0.8010896553096478,351.3753535240178,0.0428373211889984,0.0768671033817548,0.6333385818425894,573.9149216193578,0.03410579509432229,0.03954454039256622,19564.03257674003
165.52962871137802,94.80266925665627,32.22670533087348,0.1992490554489102,212.5592573184547,0.398628961644075,0.571682326099271,0.0929116613297033,232.30849104692027,0.6551782023953244,0.1707398296008531,35184.85494309007
154.7350339040107,97.17434450878254,37.011473286428014,0.825116309989203,498.19597292574736,0.1536315203932666,0.8181097847441675,0.7101108919062131,851.9703596041334,0.625864208475314,0.02794407031441208,77088.3707615071
71.82291804051536,98.704108285583,37.86579401930283,0.4451581220434651,437.9079722585075,0.7583057135132932,0.93778763045879,0.3774977091375225,603.2172285991519,0.3700161604743626,0.04717599527429993,31451.82840081106
156.4218707865957,90.55217626750404,35.940336238740386,0.5959282174121413,161.2286350675329,0.0013198689843296,0.8679939333361105,0.5274410455577785,246.26723492140596,0.8447478671251915,0.00017423071313301327,25219.684721632824
184.1938887975096,92.46617422690674,34.3229323643239,0.833506999285382,394.4083972638442,0.2084944749542605,0.9336165192303671,0.6967136003530283,669.1980917310046,0.8892742465724481,0.01384058896870085,72647.61646642051
144.52495696897603,90.20236232639952,37.43052874032959,0.4823811343612099,495.7543457405306,0.7403047907559818,0.6795541191072888,0.2458038562778659,617.6126756900634,0.7634542543682499,0.2372276208028948,71648.87548533305
74.76036398951065,98.34969549481184,32.14982540260479,0.1138736494688853,452.0037388224237,0.473215029918105,0.9886565549140124,0.0216417946082356,461.78591090017323,0.4046310526452809,0.005367888705740009,33791.9640389841
160.39891855387043,91.84368238019694,32.79157895452286,0.5394170164900876,475.7009870025715,0.9945051042205588,0.2986839838141343,0.8515511170493673,880.7846938660978,0.6469507383022414,0.6974623577684714,76301.92387022125
159.28720922300238,92.08383679008826,37.01883914999583,0.5283032597465417,139.28032816057237,0.2535497759319092,0.9666149922642142,0.7225540966161562,239.9178998510365,0.8368204897454579,0.008464761230893542,22185.57477236152
163.00734507343515,99.82044622786384,34.07348524009218,0.7494666724042299,274.73205262111003,0.5736665975490097,0.0285184939112925,0.5767897084972363,433.1946731672874,0.33402681979365606,0.5573064901796965,44783.34250434243
104.65936945427812,90.53544650892675,37.709481856639215,0.3824914361353885,336.3549418931402,0.4380317831344696,0.0124160891694234,0.2436610125418449,418.31152760827615,0.4351226331000921,0.4325931414560305,35202.696131366414
183.67182268857528,97.5715058030744,34.43793819107348,0.8276142605294334,491.5977310122993,0.9112697889835112,0.3550947663631898,0.5669504756388102,770.3092984326822,0.5608153278198797,0.587682656170578,90292.65128459696
154.7639285260929,94.09143787917624,34.016957989910594,0.4488939105029191,464.1754241750166,0.8191386377516322,0.7083589360386612,0.653130670289656,767.3426300984305,0.6856294063661414,0.2388944638457277,71837.61217059112
139.20670688984643,98.48752700565235,34.4163942192018,0.2903757632770724,496.1784597253259,0.405225782929334,0.8150739906826099,0.647578490806859,817.4929578451244,0.5394728375699158,0.07493678690963672,69071.36940803891
180.2711171669979,98.60511486587446,32.66351806378373,0.2001828893297951,422.350581190826,0.2049160325159997,0.9173619850652766,0.7194894502594087,726.2273686685552,0.6883661104111949,0.01693385415542146,76137.61110740106
95.01949784521862,94.71082850704514,36.04519624965717,0.135451146600718,59.64793998040096,0.9488816248994638,0.1825971310870993,0.9558117431743745,116.66014146982847,0.33217798878353116,0.7756185624515567,5667.717304439439
92.7915395084074,94.87249560345452,33.88685981519906,0.3448757418201799,243.03649132287825,0.2621639104087994,0.9535735374122972,0.4243767670138781,346.17553177687773,0.552009756066355,0.012171342978439987,22551.730186571567
68.4908034023453,95.32111133837005,36.6776518552548,0.2939889565940908,96.48521501597595,0.7192685059486148,0.8381759206857385,0.5022944086937836,144.94919904011817,0.4318732534687003,0.11639496375487898,6608.3498928922245
116.25675763379772,96.8152602988665,33.63848870192791,0.9835544956434932,386.0467000787431,0.4316155173723491,0.6689516417606249,0.4391921656826669,555.5953863409733,0.47783081098771973,0.14288560841675463,44880.53764638183
116.3265477886574,96.59244537050871,36.79263097468777,0.8891629967387008,69.06286937875191,0.574369724239014,0.6090816550210135,0.7503124383797197,120.88159930382334,0.4667696607188945,0.22453166200555222,8033.845175209188
61.75871115759474,95.03228345386115,36.78932708952808,0.4330031865175282,57.904455066785125,0.7605020044172398,0.6793587899216466,0.4133125614011103,81.83709370697359,0.372946098039444,0.24384828296335706,3576.1045152075058
150.8236362917702,96.00739774450392,34.68765450306299,0.7032373181448326,366.5034295335196,0.6568932346546846,0.8580136575683268,0.9085240305005124,699.4806025255733,0.6612926082626296,0.0932698677567295,55277.379955649994
171.50888519878845,92.8059021597437,35.38082284287711,0.4007937640336838,178.57914285460157,0.4683243073685551,0.2306346456614133,0.7062281699579737,304.6967641054704,0.6305690979083807,0.3603124966839816,30627.909710747903
129.5500078234693,90.14470641502864,32.973377426578985,0.4129045673220202,497.7737386156613,0.3088438091424591,0.1103347738252029,0.4769054255322751,735.1647352489547,0.5500257955377836,0.27476759731341177,64486.59173197647
163.75341156956654,93.66253005998476,37.88826262595717,0.4199045172224306,430.69158160070594,0.7696001512947322,0.4512677953712668,0.2543595388063818,540.2420936644527,0.6480357587097487,0.422304387702565,70527.21582140795
102.2313287200346,92.81260020380476,35.05325750845601,0.7117076180265713,256.81415264574974,0.3951491084976367,0.6987269237038791,0.9145287636368638,491.6780821493161,0.5654162771487912,0.11904778751275265,26254.452059084786
89.22263717427937,96.80158546758878,36.957546375992415,0.3790196615944922,462.9349359147696,0.9982689762040686,0.5462479676028885,0.1201915414455386,518.5757994513574,0.3612854872493775,0.45296657683157987,41304.27582242176
112.08723522297674,96.35593482008188,34.20957673923148,0.2341861108042905,131.47830460218398,0.3473973617503388,0.6144212982230295,0.9646855564468416,258.3135260380292,0.4629080828243842,0.13394902374444023,14737.039654663182
151.6822126539775,93.37755987132228,34.17307254534887,0.8175156175205202,398.4172557946031,0.303478698013819,0.5605087340779731,0.0173001227409698,405.30992322197005,0.6535819026439297,0.13337623717046182,60432.810918451134
170.3367076756666,91.00367495095054,36.506890206935495,0.2307625407692034,442.686509461039,0.876429274842435,0.3983776756594306,0.3493270359759112,597.328875677586,0.7315525448800217,0.5272794174508255,75405.76255402621
148.5511921594451,90.85810771709438,36.7358026946489,0.5692798381134915,375.7078535786535,0.7319678383527121,0.5637176795476178,0.3787514484406737,518.007747312105,0.7209420707357067,0.31934462701303545,55811.84955277522
68.57159842339784,93.32672986530324,37.25722017334991,0.9084062738465472,362.13567832744167,0.2718883219185246,0.577657996066007,0.9321300733011636,699.6932347117665,0.41386491689466964,0.11482985872532027,24832.22230905411
97.08998231867795,92.24750038177358,36.284325983932746,0.9308584256106968,123.63882859756566,0.8688707955393863,0.3396518450169554,0.8330496310689909,226.63610914656994,0.45942633708307157,0.5737572267530838,12004.091682439705
148.8728238488024,97.42457564213557,37.46451087642888,0.1259721220025121,104.17233414857888,0.7792031367651079,0.4647219561987494,0.6061243888829777,167.3137265228996,0.49495235252935577,0.41709033077142527,15508.429551619967
126.47382497307233,97.397963719361,36.2559431166558,0.482777335271038,165.8038946852895,0.9562591980273812,0.4638217187676631,0.7196895960453545,285.131232674092,0.42907788480493103,0.5127254132109341,20969.85275628102
90.79164029517484,99.11234310314671,34.59710664077403,0.949801307026408,282.5602676107808,0.1554011287390154,0.9895481192948772,0.4154820866996033,399.95899721610635,0.42951610862760514,0.0016242340590216222,25654.110178626353
180.90717184105765,92.29116613911398,37.65829286382572,0.1122938950917628,130.78773162215003,0.8805824431209666,0.2474677295013374,0.3021910269280519,170.310610550638,0.6789427710620788,0.6626667052830804,23660.438639270425
181.59821550796028,90.94210363612494,36.52282090261127,0.8100558068871102,481.46042941648153,0.9859616844014174,0.0571796545302665,0.2970769577964727,624.4912290869132,0.6644283404082844,0.9295847359072646,87432.35481972931
119.89639762538803,99.72514482159742,33.236876961680984,0.2098768794861094,135.2001890736817,0.5336024015254278,0.0003097319150059,0.9556554252415336,264.40498325562675,0.200620736535716,0.5334371278317516,16210.015628205785
136.37901685601253,91.02534538112644,37.569300773885566,0.5257316125753303,198.9088623851117,0.3515280415968803,0.6705800508269354,0.9370546335657752,385.29733354037774,0.7118918068129575,0.11580034959575124,27126.995096029423
71.04509809429203,95.066912010063,35.19920398621424,0.3705320105028266,228.04106953852065,0.7015993498995969,0.8025483033945796,0.7223161772939539,392.7588231536096,0.4363930717076303,0.1385319819749354,16201.200154891469
83.98924189141104,90.35064949018718,37.99601073698669,0.8560694437189517,369.02935554278986,0.4512054082123965,0.8562440416916203,0.8864360553553905,696.1502817804824,0.6325435975032275,0.06486346585149673,30994.495807714906
134.55109073215004,97.2509601889765,34.40866129556002,0.1660246835652276,491.8630030256364,0.9863985764853,0.938883315070567,0.3596367431790025,668.75501152402,0.5999578297156956,0.06028541101389331,66180.7035478902
123.17878623008352,97.52154892257666,34.008461190796176,0.979517408500404,302.2130669780758,0.3245519060324997,0.617740500624998,0.2032895554359561,363.6498270109857,0.4617728219757333,0.12406304912118604,37226.23877323031
179.91072662369018,90.47865598906108,36.165648478615175,0.2356632937280515,56.146026391736,0.5706441825450448,0.1070106726044208,0.0622505899414542,59.641149657490026,0.6882960460488213,0.5095791647530997,10101.27240517011
124.04811790575334,93.97591869310646,36.62890924890156,0.2576573773337629,91.23719232907752,0.4692449458705396,0.4182555532560479,0.9645801858016528,179.24278025788024,0.5110086965120533,0.27298064142285283,11317.801991427303
97.6994670779593,91.40770457771214,36.17384129431362,0.4219450884481848,338.5037592733907,0.1528058093182832,0.0201949230843329,0.8954453137667079,641.6153642071622,0.3906220376974161,0.1497199077522612,33071.63688489609
146.41221095747676,91.98104194241088,34.49642141331968,0.150953475821251,393.5215669026032,0.838881080505121,0.1726406407802911,0.2589821774319667,495.4366391654787,0.5635469048922275,0.694056113228254,57616.36266966074
89.13542213294544,97.86652516076347,36.90927200822278,0.3634519940557946,162.86185962540338,0.4556025375016621,0.798613015923451,0.5836122161410496,257.91003044623756,0.40474763383563617,0.09175242096508253,14516.760607066833
126.80794407897582,97.50150281298518,33.776147309123665,0.4857074540251276,301.0769336455162,0.5115083647656388,0.01462853920507,0.4250681736160074,429.05515594812357,0.29220033376301663,0.5040257445979434,38178.94696519013
148.8909419889828,92.14007113173874,37.245511260106014,0.1476756154414907,95.14897394543092,0.8884317051440961,0.5435402377305709,0.6043614749612047,152.6533481801368,0.6773882548650455,0.4055333249226976,14166.820360020392
162.7223305491955,94.2744192085656,37.86182632775757,0.6449763474021449,238.64000327183047,0.5863641413229526,0.2895427477937049,0.4507179855321473,346.1993448138949,0.5780815015000503,0.41658665663660854,38832.05749465989
124.12315752968252,95.223732639668,35.526014308839564,0.484705479918237,289.63169139043407,0.7680324542540824,0.348505799831591,0.3203619704923062,382.4186707612931,0.45282421748676327,0.5003686894876436,35950.00005604324
93.6991784737481,98.86073967095524,35.07612843397287,0.9638509432589892,304.49251157884703,0.8310844073565952,0.067554843455687,0.0446600288772237,318.0911559388567,0.16909547426686297,0.774940630319158,28530.6981863462
129.1262350467776,94.48226582108224,33.5606958980924,0.4909781243064965,149.0582393760939,0.5383394903500163,0.6864198939976419,0.2577976621641259,187.48510501355153,0.5913027884418818,0.16881255444921353,19247.32925333634
126.72965701087873,98.18542579905504,34.51803375294361,0.8475249926030062,123.91864867428076,0.9892562386150588,0.8616571554970481,0.6545222690109419,205.02616377734077,0.5255330530330561,0.13685652199229814,15704.167843743182
172.73431860578845,93.82824207963505,33.88710543325463,0.2678599112536538,498.9426522689631,0.7191719228421252,0.4912676284900007,0.9798031631041544,987.8082411696694,0.6816827027962412,0.36586603783088056,86184.5190630442
148.14518821205894,92.74572315551022,33.676654533415366,0.992834626400735,483.0251270686084,0.175454970196941,0.0173459268537179,0.734447277798688,837.7816167525132,0.499126447604475,0.17241154111778362,71557.84836073268
182.29321603788716,93.7473102253576,33.47186298791588,0.990880735634104,79.0994947327568,0.6365444885767242,0.8480279026572813,0.791532618666892,141.70932493380383,0.8194800058021552,0.09673700098095299,14419.301281806152
129.89891236698298,99.32161719213632,37.1377959602967,0.2847317767626431,477.9648161368728,0.0341954499211888,0.2233714378273689,0.2542250300825091,599.4754358976502,0.30931378914768526,0.02655716310513907,62087.10976586477
109.35254417592196,97.06790504396814,36.21576263794192,0.4019289495047827,235.3385594239033,0.5177406571044623,0.1476068191575886,0.1437851730161922,269.17675490805067,0.2933702472077446,0.44131860556071284,25734.87021570022
169.28435473568146,91.930149854057,37.56805245064732,0.8325855771159778,125.85611497645075,0.657494059256251,0.0831936768515072,0.1753216783785991,147.92142028833206,0.6060479678021566,0.6027947109587007,21305.4712133282
111.59864865806038,99.57663474808972,36.55073448385476,0.6697961404459585,210.27513439149936,0.659596827058815,0.1363853929336768,0.8575531270999133,390.5972334402842,0.22130500733817457,0.569637454622592,23466.420844483368
105.35595848360568,95.88759463565007,37.84923520058746,0.3443357957498726,416.1325461003411,0.1605154152806912,0.2327796844374789,0.1570588840991387,481.48985942819405,0.3425282163592872,0.12315068756430102,43842.04325062466
158.38087951662277,95.79961980535111,32.8417100767278,0.9870702580789336,190.0603636603686,0.1322837080096054,0.9372620447778404,0.6369435754268788,311.11809123713664,0.7137124890855251,0.008299209349727863,30101.92755777835
110.261564319123,92.28942336139446,34.7243319356573,0.4172278974361295,229.39667938328543,0.4520082879870811,0.7307623018532994,0.5914074128989139,365.0635760649559,0.6145484795839496,0.12169767100087267,25293.636718413363
189.39472055969384,92.5542828104609,37.517183773476994,0.4757705254967773,496.806570904669,0.4277011708192385,0.1276666349823053,0.838502525323637,913.3801352056105,0.6602609785484481,0.3730980015627542,94092.54166870951
147.86631713967515,99.29076360256823,33.92821973444522,0.1735335636420059,99.43689067373003,0.2520147336790524,0.546309571379299,0.1819414017484336,117.52857794841421,0.4603879390508959,0.1143366725415811,14703.36681174497
109.55482944529922,96.1909309527112,34.64211064335952,0.1732512849696846,181.18123625495903,0.7778121434439174,0.7163310272566953,0.0357746907140078,187.66293894516176,0.49092987545661226,0.22064117171800401,19849.2794366005
174.41721825286544,97.95287044797224,34.59030131015967,0.7855074148547653,405.76645789268576,0.92622745020583,0.136227778318449,0.8035676014003101,731.8272371902112,0.456263670261758,0.8000495424467279,70772.65684596071
77.23909119984275,99.08258554677066,36.25086951882101,0.2551565289686074,469.35620798927147,0.204446367065663,0.8503627876578504,0.3685766938381376,642.3499673623625,0.3484766670575763,0.030592784441185662,36252.6469540957
64.5883166326591,91.61416987687574,36.76731376653024,0.3200567476099827,210.24035318963612,0.3912768554069455,0.6394684394921037,0.595319545782895,335.4005447557257,0.4720413893494727,0.14106765527048856,13579.070500774298
156.1994765401182,96.57494229984944,33.54644036786911,0.661901973896085,393.0046529198868,0.4113226968232696,0.3811750009651801,0.743888144118619,685.3561548104433,0.5171301697797199,0.25453676746465936,61387.121063917155
139.54305107300945,99.52491300434323,35.731291783342364,0.8035500393891637,318.2732590598049,0.1694667088884395,0.2379241622449834,0.1580613002916493,368.5799442348586,0.3361638609097847,0.12914648414774307,44412.82164415552
151.66851221164035,96.77081971951108,34.48772037437887,0.9984762373437892,309.3032353000704,0.4966238140631713,0.3114157538811587,0.8575057399572561,574.5325349572306,0.47688616601076406,0.3419673346113524,46911.5615202086
128.92761785927928,99.90801355945938,33.50439095601233,0.9235690887509254,109.952036592959,0.0424709104884113,0.3982564091570115,0.5429465845718413,169.6501193278242,0.3412855357202914,0.025556598183667754,14175.85415670651
118.48362651938184,92.96501571023938,35.28922263675291,0.678638087344684,436.7121011387696,0.5666674537501646,0.0223449337662912,0.4910448217723773,651.1573170082971,0.4061047436444422,0.5540053070286043,51743.233487820486
102.9427881434717,97.83925279141889,34.81569366872145,0.1254382309449799,474.9495060867312,0.6600026045745995,0.7101418825625281,0.7852946667226732,847.9248201792091,0.4199586357836942,0.1913071124658216,48892.6263839329
65.02332600962367,90.14079663282892,37.54446683176562,0.6618613607049427,337.432665330157,0.2087425334283899,0.8487524666688433,0.5447796153700997,521.2591029620276,0.5803736174303435,0.03157179328234049,21940.99420405904
127.03461356490516,95.95926812116734,32.632003365469785,0.6369966162392333,105.4650289778968,0.9707281639857944,0.2346835328852502,0.0706681903080784,112.9180517165538,0.405214680223856,0.7429142489903957,13397.709200818643
97.52611715061948,94.0984767311835,36.81373289818213,0.78129528354069,310.649015852401,0.5886917203634046,0.8903091977745643,0.7575269941328445,545.9740310613967,0.5703166090426495,0.0645740670701337,30296.392312745913
165.57948903398784,98.0991312030609,32.13851288331062,0.3499876445295296,467.4372346355663,0.6534319241743621,0.8703290345540943,0.7575838327190574,821.560126406376,0.6459004330114172,0.08473114846086541,77398.01846641736
84.90264186527011,91.43691607261734,36.24272368366629,0.1102894090049836,155.48258498371655,0.2452299582316788,0.9978847082284604,0.0172939757670825,158.17149704062828,0.6451142191399812,0.0005187329127824635,13200.882229158911
77.82279613305028,95.01396478595323,34.261013366097,0.6049990978915607,206.0856549180003,0.9497993534620032,0.1807759548407268,0.0874501565027536,224.10787769355193,0.2715448754369391,0.7780984684328045,16038.161908629687
88.55232543015754,90.40487824328304,37.3822310975041,0.79852546332237,202.3878626089108,0.4799830655289917,0.1966864341268613,0.0968921611641681,221.99766001048494,0.4465750399336406,0.38557690792881477,17921.91587285828
137.9022496267197,90.25371488042316,37.8765230820656,0.945532798943388,114.43887674610896,0.5351067800006034,0.4238578941692716,0.727012454699724,197.6373654423768,0.6655692628438522,0.30829754707384793,15781.378548043327
61.04144358004215,90.41972726243506,37.36946385538799,0.4342752207939089,481.4139836144293,0.2094283861389335,0.2979574289583591,0.7821940360464525,857.9731304670005,0.39495191300505794,0.14702764265407842,29386.204519443523
74.7122822549346,93.101472210908,37.59609141416301,0.6495784758294803,481.4539897731836,0.8982797075437949,0.2338483690854776,0.6819974472807335,809.8043817816192,0.3356929388295,0.6882184629520988,35970.52637669849
154.07924998883956,96.24922469788456,32.12130512088679,0.5264050260770401,100.52274124800932,0.5113245436611265,0.6989276609452169,0.4787016818903501,148.64314655165984,0.615954324888593,0.15394567637617493,15488.468578315464
104.53930729529436,97.29033742829496,36.05448056208306,0.3962230350004723,336.787171892746,0.9117377082773536,0.171432204474718,0.3351242666962247,449.6527259059979,0.2795671499264937,0.7554365030446395,35207.4976556089
128.10334808653585,95.65644882384788,33.01932004883972,0.3912198436355607,69.95608787912052,0.1828876508965526,0.3936634140556407,0.7317720250869874,121.1479959735878,0.46517313001251365,0.11089147385599953,8961.609076351268
96.23497058404504,95.88943648507347,36.69047515289165,0.501264670778846,262.05650928124146,0.1371031880743286,0.6948870858072801,0.2294186765157133,322.17716681287163,0.4540651536138036,0.041831953258470965,25219.0004620378
128.0603875406983,98.30182966617694,35.625437061992855,0.6413239907930867,360.91425653203777,0.4890173803465942,0.6505747911093461,0.5320346868333901,552.9331599797663,0.4626568533845279,0.170875000278769,46218.819560455755
114.83921459911988,97.40149393697592,32.94879587431619,0.9840381052201268,405.3704041447471,0.0423497474764142,0.7007318803632652,0.1654416400188777,472.4355486215693,0.4655530834755375,0.012673929294357034,46552.41883371057
184.82146646256604,99.24622817842528,33.29713144322285,0.7031669206700868,221.91567368507197,0.5373577492268772,0.7115129003118185,0.8941075983979475,420.3321637304943,0.6208434352746653,0.15502077856943097,41014.78024150328
158.413496435105,94.72462113914892,32.050098425082616,0.7459330255384032,305.69375335437087,0.8594225908613043,0.371119691218732,0.8559758603951435,567.3602268992993,0.576257442946599,0.5404739443144544,48426.016307236496
59.11703396012185,95.03576896338592,35.05573394407956,0.8770988201593001,461.6130845845466,0.7987045738426389,0.1407078308255742,0.0928997144941193,504.4968083492007,0.20341463156876616,0.6863205857867765,27289.19639782124
156.91692702137442,94.97023647777206,35.70822514806174,0.2899344971877539,365.8380920708971,0.214759399962472,0.1191570455404648,0.9907250552476052,728.2830560495152,0.4888541109914659,0.18916930436090085,57406.189195127816
132.12820208346886,90.0094304252749,34.31849337098349,0.9849172928251588,302.23498320279043,0.1916992711616344,0.4454054285778348,0.1517066155038984,348.08602959136334,0.6622537114110917,0.10631537513182807,39933.76493731211
60.858619108105714,90.09005664264475,33.762058480150614,0.2863763423989394,125.34032648581304,0.7462660613322051,0.1906759467547915,0.1656631674764127,146.10460198398053,0.37212816278814287,0.6039710735567175,7628.03918848571
145.68555346446027,94.32271287788168,32.416879909301194,0.4636180925765322,435.8366809928604,0.2086676245115918,0.8480946638011214,0.5451908290902965,673.450842451321,0.6936894251080437,0.03169772565525471,63495.10809055828
184.60160391058196,99.15476881218332,33.974575281888555,0.4094402421328772,193.45926278774803,0.496364372466307,0.2985887562882926,0.421229733685496,274.95005653082353,0.49906166009067043,0.34815555182577357,35712.89020197705
98.5156918409274,95.3418989180862,36.11512695440895,0.1490856946076356,235.1058119966752,0.7856268042879978,0.0064895213869972,0.177704461196814,276.8851636417838,0.27075429172955334,0.7805284623393726,23161.611724675466
93.5297141908836,93.23609469434072,32.601268094303144,0.5128914609609336,205.92277842957125,0.7069110150989903,0.6114342367394741,0.2694384907480917,261.40630106028857,0.5007107939647145,0.2746814181392124,19259.89861191045
185.43403335266245,93.94629069906031,34.46295868724805,0.9335700292955048,479.3691772036301,0.8525106362892052,0.0509740357916613,0.814423567079152,869.7787324496086,0.5836980662596148,0.8090547286022274,88891.3599938163
117.23089494869284,98.58813914674856,34.42113659904338,0.2351382797654877,210.45030065976036,0.457626632589441,0.07660361631371,0.3835018811159071,291.1583868441867,0.2497603283354892,0.42257077761162426,24671.277088565188
156.14431728727124,90.2027997376742,34.90605741363275,0.3567679488012054,437.7346728104963,0.7608310300194505,0.877598373161419,0.5151376734611006,663.2282937553515,0.8573009900775841,0.09312695582365402,68349.781638962
116.57717320779548,97.64093000212982,34.2102470455084,0.753797222296675,241.70036472608425,0.1896963648501283,0.7169769010638771,0.3599615248831554,328.70319657770034,0.4683867033847415,0.053688453036800726,28176.745283060063
140.91031527079474,94.94042866935732,37.53278795317646,0.2321633521660835,128.98015360947326,0.3352478357003311,0.0685259875969881,0.2064426921290689,155.60716375183378,0.4271071800365456,0.3122746466692131,18174.634108786413
152.0524375216467,93.60788401078727,34.9952690211996,0.9806110049658556,468.9628683249032,0.7907481185774762,0.5879742483703485,0.8300653721957794,858.2327061670142,0.6560006110045467,0.32580858790661743,71306.94723594458
182.5679018109031,94.32117175615896,37.701704301022914,0.7623860398813715,212.665250342424,0.6780725123219167,0.3952924979506717,0.5652263811708307,332.8692601942611,0.6672359790783493,0.41003553513449864,38825.84854310679
69.00958566569,90.06957587303292,36.02249308795374,0.1654140840308333,431.1711134917497,0.9442661596555508,0.5115195574628737,0.9873155491986286,856.8730582074407,0.49316069556069964,0.4612555515413762,29754.939893079845
135.9046314519146,93.05431692683032,35.63874665326127,0.2174081384596247,299.98340001616805,0.7666978238334825,0.4340763941969195,0.2262826272936676,367.8644319163138,0.5785878147161597,0.4338923970252194,40769.13342088959
181.0107982606899,97.58794142704312,32.502085929486185,0.6879444092494693,231.91822177931888,0.9824473570470746,0.6558489485738741,0.6311742040090069,378.2990208060648,0.6426590498068283,0.33811029089856925,41979.70245547423
151.5933038738524,91.49508639520695,37.2665500531564,0.4834901385827742,483.7790414247292,0.431651762593961,0.5448732842857352,0.5340023057474993,742.1181650178496,0.7051736984464191,0.19645624904166298,73337.6632345
181.40759530637305,94.4394496032672,35.68227309112537,0.7497186165930736,388.321874791814,0.2732035060502324,0.5653851600991959,0.82689323382559,709.422605603633,0.7112711017955143,0.11873829804236012,70444.53751084546
65.56705489853324,97.48396356209744,37.82841109165188,0.2726987947462858,461.8633478138413,0.5236943322446882,0.087479605750928,0.7501548237949217,808.3323661104661,0.133028588123092,0.4778817585259274,30283.019481730487
72.02833114992829,94.17055236232706,33.85903862916607,0.3650176889570442,78.04297627213354,0.8324894744194485,0.6805548476444818,0.4396423205248465,112.35397146107987,0.429634894179476,0.265934726990286,5621.305338855231
153.86060403210445,91.08123352477097,33.19837111473443,0.7886003593958648,480.5997991848348,0.6893388222000828,0.7420925925582444,0.6467749610819326,791.4397155985909,0.7834924702567809,0.17778558848257664,73945.37540028678
58.119940243151945,95.1438324651102,32.390275746422844,0.8976661702762597,164.6968803850326,0.1372172316100659,0.3250515236095875,0.2855429378695334,211.72491146812195,0.2525157418730106,0.09261456140972434,9572.172846211639
151.9921240736275,92.4232573024632,33.86843387026927,0.1525878917691176,88.10141642388024,0.3434442832940099,0.7382168001363199,0.4413111123884602,126.98155050890178,0.7364785592214984,0.08990794345559418,13390.72141616073
108.79777388853734,94.73919760911193,35.93736794245284,0.6018951228601747,472.650861277043,0.9909174747945124,0.2015270029182424,0.7741346587074271,838.5462744595183,0.37785168606001646,0.7912208459598613,51423.361533442156
82.00120435022092,98.3723999951546,34.18176649262694,0.1522417033166534,55.23197057841499,0.8092812643714332,0.2764105410936747,0.6999594127138372,93.89210826751027,0.21174134490197732,0.5855873921895521,4529.088106065997
170.96316278933577,98.5460756273337,32.073743966934025,0.868600741146732,107.6607681127358,0.2241722767469017,0.5764598564592339,0.9062673972898302,205.2302122204888,0.5602746652394547,0.0949459582712431,18406.02542488258
134.79787637230788,99.37827206992384,33.88544912299703,0.1755122876453782,289.0150846540987,0.5938543647058008,0.1498162860461033,0.3277269566820709,383.73311878299756,0.3000688387217841,0.5048853093333096,38958.619650935296
86.59380366642807,98.52956113673748,37.48288879001728,0.9983780913590716,207.82332925441293,0.3883931803838869,0.0595441380024962,0.911683004329736,397.29232643888406,0.15557575288780723,0.36526664325188035,17996.21257076007
122.64139600224644,98.94302893318648,36.92674175670635,0.710515566509518,264.0429430032365,0.7684105431140342,0.4292107795416997,0.2899583218037868,340.60439164058783,0.3609221452318403,0.43860045489599875,32382.59513445851
126.81842296655554,97.27397293845952,37.40832114086394,0.9423150267878344,151.9091112548277,0.2036486411232774,0.621883161454933,0.6670015326808647,253.2327212899858,0.4812423610397221,0.07700298035553256,19264.873923588282
180.992315671174,91.08145942337198,36.85461930093828,0.5680809438452509,187.61116210226544,0.1232346680098039,0.5881115704556024,0.2685541062096794,237.9949100555986,0.8177256835789172,0.050758933871983346,33956.178674649025
123.0094149028256,90.53628390371448,37.84115931102351,0.5649881403351186,115.86917240067064,0.3994003017782948,0.4441590723125003,0.3759611021613539,159.43147416295068,0.619020670917938,0.22200303425911472,14252.999102281123
183.85043880515343,91.59283037349458,37.71906522957884,0.8750172187403031,95.70746464009756,0.6541683119919323,0.8087153968854397,0.0914165491145176,104.45671078199499,0.8770193507035388,0.12513232592949863,17595.85937101064
93.90861574049433,97.13031456375104,34.03743884724902,0.2813018334812144,199.69452540727303,0.9324504210806432,0.4787022008507855,0.2148964335742318,242.60816672159484,0.34503933415057486,0.4860843523250976,18753.036451951986
119.97198349672668,95.67163087913391,36.12904662033358,0.1923261042979187,448.4474439630376,0.686821215992296,0.2693458790611043,0.9447090508254122,872.0998030944411,0.4033156952242426,0.5018287518130344,53801.12934628281
126.2492482242984,90.35748394465864,33.2569173363176,0.7504858295557271,286.5339626001663,0.6027298005076018,0.7442352584372388,0.2299251635455605,352.4153308123671,0.7240191116575592,0.15415703165900138,36174.697369000234
169.2848335328294,95.4188017327622,34.57651272111352,0.1914170898118432,427.8332244060464,0.2498931948673647,0.2404455636759093,0.9805921238047872,847.3631145606215,0.5484323273507062,0.18980748476870735,72425.6761733912
180.59740891296417,90.96951392626714,34.370457952329154,0.4914857612534167,413.8309729671848,0.7305600808974653,0.122234192854526,0.9021541886529116,787.1703186238403,0.680154369974006,0.6412606590772264,74736.80144580449
115.95195178112496,98.59046329706656,37.48959141062178,0.8645893835987098,263.09284110450074,0.3921278549867882,0.8363098750156717,0.0406997952538076,273.80066587019644,0.47381085516084137,0.06418745759262394,30506.12842570824
94.00649724877366,95.89118735980236,36.20112536498274,0.2594884418391155,123.85149781810564,0.5627020053710676,0.3034842085515608,0.4937694913726616,185.00558890149398,0.32998519548795807,0.3919308326206531,11642.845488894245
177.71242040850666,95.53530885357183,33.51317096856751,0.4391376455331738,291.9418087944556,0.1072358017695235,0.441518696510865,0.5420419845539489,450.18652620767176,0.6302389196993529,0.05988919035294597,51881.68545930016
94.32465587274322,92.22603636541238,32.62445573850948,0.8628083166506452,335.7281820924418,0.2967062891698996,0.8828056791884848,0.3283122735424637,445.9518648474896,0.6148191771424252,0.0347722920397714,31667.445242651243
101.97576993095424,97.37953120252938,36.86041584937536,0.9512599681564436,73.70299932336371,0.1835629081199087,0.0485334507296689,0.758555228466791,129.61079481378562,0.23241848019513175,0.17465396676287637,7515.920102220614
111.13111837933972,94.93035121540206,37.01321300760901,0.3424212263624447,127.18084894160998,0.6905526403996448,0.640347346297737,0.8887277285517147,240.20999593676578,0.5106732911403051,0.24835908964083678,14133.749979314982
130.5842273528928,99.86316842272012,37.96887817582263,0.8353764522276845,409.1823453086793,0.0711767988636767,0.4349591063512168,0.8826056237288415,770.3289844086764,0.35855457164233673,0.04021780203699158,53432.76040857847
161.78554999883,91.39526780559667,36.07227941729212,0.7451534860605123,156.70922107249532,0.0896992970082546,0.0318417445480978,0.3644268113352511,213.81826281477575,0.5844783967205809,0.08684311490677381,25353.287521101895
58.23668539583178,99.543459516233,33.42078820757671,0.7729989744448906,432.2829497867051,0.0222503519263309,0.0094751312616965,0.6263010947738659,703.0222344901946,0.02603229633457972,0.022039526921209973,25174.72614871049
148.2446403323874,90.91011806882516,37.218611408083554,0.7103643261301612,320.4845595528767,0.4682885676728678,0.7980465828368204,0.7468481212961181,559.8378507593566,0.7887696479088308,0.09457247645998654,47510.1182629998
112.75616664616372,90.38684958257193,32.48767462904533,0.4060980428525819,409.43711702840034,0.6757909636279851,0.799891304268817,0.8131512009875106,742.371400468908,0.6998324289283488,0.1352316483185154,46166.55979877915
73.68110594315898,93.64152819104604,36.26087022557902,0.2960192036047794,203.1013586850764,0.9693301253516604,0.759090961396027,0.5781406737621203,320.52251503726853,0.4739864261120811,0.2335203885883371,14964.732726474647
114.56214879874588,90.8900317798268,37.319384675786914,0.8941568812897275,279.4516590788923,0.1141147571867785,0.5862678431932681,0.7464597592217775,488.05107722904853,0.6259847218061049,0.04721294461436238,32014.582549452465
70.26927712773218,96.44365700492568,37.792913942047605,0.3586182955677971,412.59372464435313,0.2547923557313042,0.113460501524769,0.6817831212123454,693.8931620250072,0.18601187900794555,0.2258834872653531,28992.662778197275
71.54008424250767,91.06388405414076,37.24433937883387,0.4488097044698489,412.1022280350013,0.7807732348871894,0.2628230262123887,0.4506234145701252,597.80514118409,0.39618644617749116,0.5755680505085021,29481.8281101491
174.3396998776102,98.05928153415358,37.991361490910414,0.3630999801550442,162.74499092209408,0.0866785611508307,0.6137064818495768,0.2849682775773116,209.1221506694984,0.5960810799115938,0.03348336633517099,28372.912873942278
67.75242748314673,90.71006780222588,37.03002692356032,0.1010832525181161,176.919059655352,0.3608068262457512,0.7098270749198761,0.680199123483904,297.2592489605189,0.5296868081327621,0.10469637216060566,11986.695759685746
110.06446512479846,94.70500719089682,37.432812152824496,0.901283010592286,70.66851450309049,0.3151872901539638,0.1758578813161925,0.9095689433445876,134.94640056739817,0.37493318198427034,0.2597591210896957,7778.092249946718
159.84192337251272,90.39451952922693,35.379188554688966,0.2026452679348588,344.2097792001275,0.7048241653907162,0.7707286153065659,0.2057042949765698,415.01520915453045,0.830443029112592,0.16159601236452353,55019.15315097631
164.3060248418899,98.7246552325854,32.16579099713558,0.2751666824829021,482.41284420112765,0.1524069200378813,0.488155956087309,0.9374671878137444,934.6590566195888,0.5086836341497691,0.07800857427246731,79263.33676335723
100.1084156032834,99.05373188262428,34.703740550649016,0.3310674412073944,148.63295554354926,0.4166318501194115,0.7460934621942268,0.65147608792907,245.4637719583961,0.3858606698767464,0.1057855506034336,14879.409685897976
177.75078086647102,93.60532917851648,36.11823339663586,0.2230255670401326,429.5481996491331,0.9059552097493824,0.6298837036711994,0.1692862102727894,502.2647864972344,0.7448351512736365,0.3353087868722231,76352.5279074202
154.4702722970095,92.61752869037024,34.64086523922762,0.3441417278348591,171.711097527429,0.0976663181261229,0.8926561953354805,0.8226249276785601,312.9649267125364,0.7843215106638977,0.010483874175233361,26524.25999148031
178.18548232109976,91.30455636551396,32.26637158981596,0.7801389302431535,323.31037256498473,0.8145079681305315,0.2314366304634246,0.0407732743413714,336.4927950829878,0.6957006834036342,0.6260009885007909,57609.21467490626
152.95171342059302,92.87152263437628,34.97504018662414,0.5350188727530091,200.77212692231709,0.7195016550477659,0.7975993494897885,0.6955851743035442,340.4262418228703,0.7436730512434832,0.14562760302484162,30708.440819865173
123.14183368134812,98.58291335553106,36.929879582987,0.6736517653359694,391.5438981995672,0.5333268427529364,0.8967513646130647,0.5337533205937861,600.5317540218215,0.5134851149480264,0.0550652687294633,48215.4335910378
57.50081786070404,97.55093967298149,35.74175568378359,0.8295991961351612,252.36035301620288,0.4089865037338344,0.0960759756383561,0.0761010558333623,271.565242331216,0.10968260378236522,0.3696927263646861,14510.926694047655
74.6136113156812,99.2195563013275,35.44657089801887,0.6611570289605999,242.46180910229208,0.0259822937257803,0.534659566749085,0.109597870335127,269.0351070175054,0.24186789142685702,0.012090611819207136,18090.951183255314
63.15893356697615,96.68360702117394,35.73556277937614,0.390870806348614,453.0511456870519,0.1628465752790947,0.511515136083225,0.9373395631247,877.713908658498,0.27714138794777,0.07954808716452144,28614.227212890946
90.75694480483214,99.76413222384056,32.648962113411095,0.6530329073826842,187.591769214577,0.2265538485262912,0.993389878739068,0.6286843334246048,305.52777559918565,0.4109872435064324,0.001497548410889598,17025.255844448173
65.24267156524641,93.2697762324274,37.12892031795313,0.2419198048658326,386.4085862243497,0.1034351666487622,0.8939783918831082,0.6252083217429301,627.9944499247337,0.5006029254804952,0.01096636270394046,25210.328481026445
101.9446078005076,96.89229736362952,32.02624389369806,0.8694330908599641,167.37582326178935,0.4565117567217902,0.4886438970987584,0.7554990686967872,293.82810185842925,0.3789948312713232,0.23344007284585433,17063.06265771019
158.96201921930106,96.78775983520428,32.726487789448775,0.6042430680372757,259.0423085859886,0.6134927718519796,0.4017452054249785,0.3141674127919636,340.42496047810613,0.525098384119839,0.36702499219756657,41177.88843605804
134.2207600849311,99.71297460306592,37.09152594218527,0.6274147397304669,281.6453183339493,0.0416032333553213,0.9077253431293428,0.6274456098169422,458.3624368480809,0.5156768019656931,0.003838924082572152,37802.64870114506
118.42913372279612,95.56952091664176,33.977252801143294,0.6630306251227774,126.34748656552348,0.8006236564128154,0.4698899080414396,0.2478755723239507,157.6659421096453,0.46197218604795864,0.42441868012519646,14963.223382007567
173.22179993545683,98.74103796066213,34.74840163443735,0.5419611546882206,487.0484554823519,0.8136360238018306,0.9003760223475992,0.2362469677151146,602.1121762203876,0.6582891335988166,0.08105765705242185,84367.41011443721
70.61615519249574,94.35389396128014,33.081740783693846,0.5377832515234646,206.16261139653625,0.3077495166078202,0.4911385356958269,0.1597855621135704,239.10442014533336,0.3631162415745482,0.15660186965995682,14558.410961267995
181.77967427188247,98.73559602272611,33.29739736634595,0.6833512440815891,108.13276301393728,0.8769888309739855,0.3639388834040429,0.8358513211799543,198.51567584197565,0.5228920161912605,0.5578184950714963,19656.33843879218
115.78580112204617,97.87325837457396,34.10686214334087,0.1940568063784516,126.39962289115496,0.7532364143087609,0.2608310800250087,0.672567195094623,211.41186272007715,0.3222181530837444,0.5567689468504419,14635.281597976902
82.08321010182812,96.79393488112426,36.88875200981538,0.9253410311390284,356.8085650779739,0.546279104790284,0.1432959914309344,0.325666732278094,473.0092445157533,0.21946425483225604,0.4679994988713569,29287.992413427142
155.11640766452317,99.02776047764544,32.299534913980274,0.2815341016477976,320.9694377569044,0.8887357893866253,0.7310758817345485,0.9033146675661856,610.905838723188,0.5452114781333479,0.23900248853174821,49787.626154952784
104.33595042819194,93.8729117367533,33.01834063848724,0.5976780274156959,344.5631600861571,0.5792211895711068,0.314090455233578,0.7437809301448561,600.8426677886899,0.4244148796348186,0.3972933424577833,35950.32479013045
186.7618799558372,94.170487283209,33.0693985934695,0.5504454055689525,189.507360119832,0.987595774513281,0.2683783652771477,0.3499285337714076,255.8213927854549,0.646121432015226,0.7225464349947881,35392.75084144767
165.04933131593504,94.35436128902036,33.09597829314208,0.4145028767052655,62.046763566407535,0.5240724465067044,0.0824580779839538,0.1792098495610257,73.16615473089196,0.5204533838826125,0.4808584398434131,10240.776836953484
118.1596397444258,92.49375787995892,33.228809149635005,0.5084679301165471,69.52851237022332,0.3712276477574305,0.0356744163605323,0.6795518622851849,116.77674243332712,0.4232988119655148,0.35798431808679093,8215.46397363144
154.3117591015343,99.74031224972065,35.76283036436671,0.9910988053614254,212.49249935330104,0.2433524940335987,0.3688846223740056,0.1696240930315724,248.53634683211672,0.41276491765592577,0.15358350116824218,32790.091371089526
99.4041700584478,92.8527799694088,33.309616897120314,0.3212444193698947,191.85738278045952,0.8725205168461819,0.3206647262228499,0.3950885223566328,267.65803264640215,0.44240933599003507,0.5927339641878815,19071.423904877513
181.0709374310748,90.185707187651,33.240479874441434,0.9471331577598828,82.70775995118038,0.4893308316242359,0.2839173996644306,0.931922435685587,159.78497705498324,0.7536072475913773,0.35040129433384953,14975.971627184537
82.60808572352744,99.7849446467179,36.914987000577376,0.7877984354580777,475.0195459303597,0.5629815045152657,0.3929444393733599,0.0698163014855619,508.1836537605684,0.20607044768387633,0.341761052845944,39240.45537056623
161.98165033380053,98.77154900371194,32.03356493529122,0.1821779898203446,496.7665080149924,0.4572997979968979,0.6409713241221375,0.842472128593358,915.2784454362725,0.5462288334883235,0.16418374095404023,80467.05879882761
136.66825177494007,92.3179027761658,33.077802958232844,0.1698831238179616,106.02450422057652,0.6068314289137332,0.600472863250274,0.0671851965239013,113.14778137298514,0.652891087889447,0.2424456232836487,14490.183637130947
172.43730107519332,95.94916020918872,33.385642155324405,0.2921153645250719,71.5149786661159,0.907289561452572,0.928132186015444,0.1628582916378277,83.16178591819522,0.74815309266124,0.06520491743260283,12331.849907635053
166.08988921962276,91.52750431667616,33.15681141599875,0.9873747495553094,98.55757275033926,0.9958564291781624,0.6150511655285649,0.2908797322442193,127.22597312259812,0.7682296695751036,0.38335377171301893,16369.416339858759
131.02209017542634,96.26643683311758,35.85277488118556,0.5363002540814024,183.7852696515377,0.0772934931504658,0.523698386271309,0.563817480575171,287.40661735329616,0.494513577627794,0.03681501551829438,24079.93017319882
155.00528206669077,92.74136167191938,35.18665653526493,0.8877961743741172,331.42893344618574,0.6324008951351965,0.5229873081917097,0.1760670360376576,389.7826434151777,0.6712872143748831,0.3016632532904124,51373.2353138885
92.50744144122834,97.16797716699372,36.938169852774585,0.883801513024,127.9064476243201,0.7386620535618252,0.8899974825811321,0.6615820213755933,212.52705379058926,0.4631427016020261,0.08125468541359142,11832.29821356233
131.2849618498142,96.77190723672656,36.38424130617732,0.5228218681279116,50.600137770856406,0.0651372386708959,0.6913864452150186,0.8448056670360005,93.34742091247827,0.5304159085782726,0.02010223477510294,6643.037156842226
129.96054855207194,97.09272011669812,37.66901271812442,0.7157887035295334,275.041551102005,0.7759739087498881,0.1712826362921513,0.1937159422795603,328.3214843397617,0.3608218048020585,0.643063051965282,35744.55085582929
169.06830093180156,94.7380843496014,36.67977321433268,0.6169903815667225,464.8304747965032,0.4525336440293006,0.933954131795238,0.3630014499825614,633.5646111437163,0.7762904546383305,0.029887977411779863,78588.09859516741
100.59095458777033,94.91349090268784,37.02154597945575,0.9208580075887502,196.7832775750592,0.2968520342799851,0.9762312567009744,0.7068443574290983,335.8784269653938,0.5806976896724696,0.007055799800594502,19794.61773818538
88.24654910392839,97.51876244369193,33.43391952653406,0.1314842394772565,449.8666225804814,0.8413083514997018,0.7356975053062538,0.5258929685789998,686.4483161939394,0.3936839861027712,0.22235989610805434,39699.176999766874
133.04013163995228,92.54217829066688,35.6304289110846,0.5506797472668874,379.9421622288394,0.2981429711481402,0.013404814251991,0.5264985273282413,579.981151112231,0.45927797718716734,0.29414641999936264,50547.555278492895
100.18926908820268,95.4609880800329,33.38579808929619,0.1925495344577416,155.71813686311447,0.8062096551724331,0.9939977334136711,0.5010205720156251,233.73612686747947,0.5683910024774854,0.004839085274817202,15601.286316092148
94.03906427061985,94.51336725154096,33.58695724008487,0.2073251509133199,438.0222782088227,0.304443448990374,0.0799151093466067,0.337474695036673,585.8437129666138,0.3043981716794814,0.2801138174744502,41191.2051724428
57.58834295123626,91.93700292785702,34.31024742704247,0.3496382319999713,134.01454319472774,0.1559262521738315,0.3413092404898934,0.4029997590536022,188.02237181188156,0.3521442967779534,0.10270718147194548,7717.675473951246
183.12574642968028,97.80944818950488,36.9879444277115,0.7111334488801959,441.39166230545976,0.380575941378107,0.9350441963907306,0.5213947362629351,671.5309516618734,0.7260339189728844,0.02472061610656916,80830.1776275247
155.9846898111145,92.58584221552772,32.138641116724884,0.9193699806203044,327.1066484456234,0.475796814994601,0.6538383898166262,0.6344800731734802,534.6492986869343,0.7181175935768868,0.1647025915986519,51023.62909294385
175.61697231256065,98.72948730409,33.43228810361038,0.820623520825058,316.1524691493612,0.4327049146265499,0.3681335899811382,0.7954509581775875,567.6362536644307,0.5060640598175776,0.27341170100259615,55521.73942115105
183.0751639622894,94.84038940227848,32.25400967541496,0.3307765326178786,195.7323338356302,0.7802269166178947,0.3258355948449989,0.2586187713104761,246.3523895179328,0.6323063964742007,0.5260012151276235,35833.72910967956
98.84785357634868,90.37782968064596,33.654115381416204,0.95038807771949,54.31353806497755,0.7933448278609759,0.9800004155993314,0.2966571761180608,70.4260388923146,0.7129037065381599,0.015866566843639508,5368.776657860341
131.3366094200046,91.65877924662536,34.718088502281134,0.313433265912852,375.2272751200822,0.7761165984135006,0.3614884299652476,0.6854066230403211,632.4105346327592,0.5851884902563785,0.49555942778303563,49281.07807617885
140.527264638183,92.52911805556288,36.30720710678758,0.8006977229666878,248.61203540852964,0.8556276815352337,0.517014723886716,0.4117645502263773,350.98165834938703,0.6329495085613459,0.4132555720164639,34936.76929209177
182.80556852957488,96.9865698008124,33.8439510859265,0.8808569795702191,274.0721240280228,0.0512395411464247,0.7171868897252714,0.661190899731938,455.2861183055545,0.6844452710642319,0.0144912140006703,50101.91045105087
108.75018162559238,90.13981712971363,32.22135973346461,0.4032341874676346,487.5169107837698,0.1707545509961964,0.9110851315740486,0.6143816397567536,787.0383498402492,0.7287348843663174,0.015182618434959216,53017.55259328268
144.27081634578735,95.24257927903837,32.252902501777605,0.1996736570474581,260.9300870696571,0.8037549475691906,0.0729598639129548,0.5499974854873578,404.4409788459658,0.4293237955993224,0.7451130959751784,37644.5966707168
81.91641056643465,99.84164959483216,34.1665978437588,0.2884778351202528,311.3424913785139,0.4253552743286837,0.7992271062915269,0.6905066320111359,526.3265465022477,0.324201405567923,0.08539980928113121,25504.059350538984
116.46798535836034,99.08887440386468,34.0202340133852,0.1646267909009222,123.81797618438586,0.4985448783312932,0.6163563235990249,0.5873835952686471,196.54662419445816,0.3943832715288399,0.19126358997389414,14420.83023734486
69.10512336655768,97.59561833913908,35.27005049434364,0.6529690083854492,386.48561941968256,0.424433888857579,0.1576360358329805,0.2548176236443814,484.9689665329328,0.16121052487533283,0.3575278131448944,26708.136409397623
151.89767355019117,90.6616872172518,32.402168474225135,0.5444190061441715,318.5324882509586,0.5373838424393681,0.6802656287285745,0.0687806576976589,340.4413622909313,0.7717274961501802,0.17182008499377413,48384.34391547421
130.17399577316593,97.39124667136548,36.05740241024287,0.2681271083714486,123.89763120230567,0.0497671965885755,0.3643682941000802,0.6120470796577556,199.72881455619046,0.4104131013873863,0.031633608065452914,16128.24972043421
93.63441755771748,93.64027469214568,33.917888165525746,0.7469101313380231,347.64837730284864,0.6026329212856348,0.4072464172620705,0.3956174657932684,485.1841473185437,0.4276240335125328,0.3572128231678847,32551.853323637843
75.08641831963564,97.89868107379743,36.08703530263703,0.1350751275715807,328.36863267549563,0.0769106387353346,0.264930886222406,0.4490879571685771,475.83503112197286,0.20202760421921098,0.056534635055251095,24656.024516119043
95.65646767103512,90.3210958048206,35.84894221438573,0.4858762675072189,491.2431368141094,0.3883668776715475,0.2578642536448449,0.4726647293648447,723.4364411286878,0.48850589874802713,0.2882209426203951,46990.58323527674
98.42443363829084,94.75197719456948,34.60988118732827,0.7875973443875888,340.29385053919395,0.757937739606166,0.8973389655687687,0.8453351220226424,627.9561942082983,0.555458735565521,0.07781067238243823,33493.229509913355
170.9825985664165,94.47623872665524,35.59627533356661,0.8297384840543361,173.55771305581848,0.4919403826093567,0.1400392312643521,0.3540049431812426,234.9980014048099,0.5516564417774003,0.4230494296008511,29675.348779528314
137.9148027379128,97.69485387315586,35.34585436005895,0.2977752701501915,327.52054884521067,0.0136043954506682,0.6140649847273983,0.0393194876684732,340.3984890267015,0.49915060354344987,0.005250412566028145,45169.93188660016
73.66719623650417,96.93757920349076,35.41659609856913,0.7284096908318171,476.2521623060199,0.9155167287166966,0.922120435961218,0.735558198267917,826.5633447330355,0.42384677848792074,0.07130004370266822,35084.161498657
105.25311485011964,95.43762455918656,34.56004388369483,0.699674790815463,205.68761951316168,0.931022279070994,0.0096662666901823,0.4326149328720456,294.671155221459,0.2888055679403875,0.9220227694269924,21649.262639866516
152.40409027886218,99.25529321646894,37.79474918064181,0.2925305834497459,329.50638459087304,0.6893401156326044,0.920300270572748,0.8081103466143434,595.7839032542427,0.5871032342600169,0.05494022069926919,50218.1207846489
131.37646117031863,90.80779213874344,33.30011986223236,0.8233767768736735,259.78560356999026,0.2002661547179961,0.5028437106431355,0.8124559504031124,470.84996301949286,0.6532752913271351,0.09956357836336667,34129.71326002062
57.65723407649085,95.25250464830488,32.487126722302584,0.7860077106779524,132.13919795390325,0.773418210905363,0.8174764393049206,0.8378257199236009,242.84881660975944,0.39560717349644625,0.14116704576086472,7618.780667107961
147.3433563284297,95.26642263525196,37.90962721382518,0.2679074736711937,344.2120967229488,0.4274310711602143,0.6667560613073773,0.9090725263612944,657.1258570949981,0.6158552551553678,0.14243881367303649,50717.36562000535
140.41139970358358,92.50056758510154,33.87593788613132,0.2695121859605051,435.368344196661,0.5784732510018857,0.0331334621932108,0.3446731410125477,585.4281188883562,0.48829924156476145,0.5593064294100311,61130.67859528472
142.55211146950123,97.05595789776493,34.13707120597053,0.1074743570109967,449.4150458234863,0.8779415639996061,0.7573055953348754,0.2424159125448638,558.3604042681785,0.5750617385222647,0.2130715052056528,64065.06370830062
152.12848122730645,99.2223086983873,32.83265530467578,0.3967409578727833,370.4845918907715,0.1929344362927952,0.3751763983131024,0.7898479084853475,663.111071921745,0.4237397994029998,0.12054998937389558,56361.25828246153
68.08853668586335,92.02462183638832,33.21892362313981,0.9965321478400044,311.0985336607432,0.739551148734993,0.7896994303155147,0.9416892084419493,604.0566655711796,0.5151581767653289,0.15552802788978454,21182.243922077807
107.37354276841045,92.04593614291775,33.39783327246823,0.6245824250728386,90.49350035732932,0.1085631447028093,0.1977676276175184,0.9991495667786588,180.91004203563932,0.4534021916891645,0.08709286912823734,9716.607730880865
69.90322162374106,92.8866630267546,32.592614308392506,0.9748378847589612,113.36533794184976,0.2247602376588194,0.3073727192040448,0.7786746648941558,201.64005447433235,0.349945836842056,0.15567507224068072,7924.602342599425
67.39979552594214,92.14753665825084,37.22535074280684,0.4225308690991585,133.22540174527938,0.2656784655028372,0.87932165926506,0.9247859097140136,256.4303760953025,0.536310879654951,0.03206163638588739,8979.364836493325
87.6572792998873,90.91066182082182,33.29042882879031,0.5969935612491666,73.48324638486328,0.3965392275644841,0.7469036553555233,0.6413668192253023,120.61296238507224,0.5937939649365189,0.10036262900471525,6441.341452220395
80.15276483000203,99.37112493921472,34.405416335474754,0.1577217270136449,357.25077508735865,0.8352172606087689,0.077271726267177,0.5103754066288622,539.5827846910455,0.11651999840341234,0.7706785810733866,28634.637360913006
83.33173143268135,92.808832730676,35.74654956310636,0.1678194066060026,446.99558531779104,0.7383916369360575,0.5349047841897949,0.85304066211651,828.3009953804365,0.4603533125816183,0.34342241773322624,37248.91606729637
99.5897136881981,96.53602952535226,32.42820208333628,0.3162905926703476,233.57091697443332,0.5161245842024867,0.3239391201607158,0.5739453222006694,367.62785217403024,0.3333037354097348,0.34893164050261793,23261.260747373704
170.48010188407886,91.39918977226992,36.30803726064589,0.8914755792379565,245.4065134751281,0.0304223143932842,0.1085553577726484,0.6533399244188108,405.74038644085215,0.6331504230660768,0.027119809170049244,41836.92742025641
92.02534977145146,94.09838478109594,32.653829775823496,0.8217283530303844,119.18526439810368,0.4819442793927208,0.9422611736585612,0.6985982867270393,202.44788590972811,0.5695974632111902,0.02782689705410616,10968.065643838412
140.59743256148275,95.875617721498,33.541915627122684,0.664867319411609,88.96431118070763,0.4587288242002408,0.6319820929833062,0.5273732899708411,135.88171265806707,0.5671251008061777,0.1688204217704015,12508.153741608307
90.90649872830514,99.75604968589111,36.90519449574872,0.5062024294653599,133.32427043729118,0.6450826919667862,0.2517444642825304,0.6722715076341925,222.95437872839773,0.18917976914434464,0.48268669525967506,12120.04262095982
151.61079932529793,91.65749015388457,32.63971563683254,0.7790709766830082,383.7473999231399,0.5409198132872987,0.4090760345660955,0.1487415098714974,440.8265675969691,0.6596080828928713,0.3196424810494977,58180.25004135201
75.91714102062134,96.06109599852974,36.54877523898107,0.2957359184766802,233.72004826689164,0.8423567877183821,0.4945862512026457,0.2846299119393191,300.2437650235504,0.3285846072812443,0.4257387019056446,17743.357863624038
135.3730225388921,98.38159201401086,36.563348693119536,0.422885410719524,273.7604660853035,0.3327637153356794,0.6087304825848486,0.4917939800626568,408.39421528520285,0.4693865868279692,0.13020029831266408,37059.7817456234
123.49820266906968,91.88199981679864,35.20461014051519,0.7709203343863498,253.9113491653248,0.40512607333686,0.9148151491912276,0.0288648394580307,261.24045949555386,0.7212437398083904,0.03451060411594419,31357.595259196198
106.18671663729236,90.4657994208654,36.8501881410609,0.4471590951098499,232.09493805709997,0.4512153132783962,0.2672072767565691,0.9029189732330538,441.6578612202059,0.5181800114157081,0.33064729818641375,24645.3994204192
109.24214549500412,98.33916600461038,36.03263040208259,0.2385769160491155,113.12024605662602,0.0154149584484076,0.3334570205316473,0.1978546496776644,135.50161271161093,0.3106117019556139,0.010274732332582458,12357.498378148606
151.8494799797034,91.67621563840584,35.93466381070508,0.267358100851924,128.1376906814354,0.11050135122769,0.1470699045503434,0.1585415355916104,148.45283692923297,0.5811513545373126,0.09424992804994967,19457.641695776052
167.17453626094982,91.27853817908696,36.15091151675031,0.8985619015995965,483.401596723196,0.0077302673403489,0.0410663737466115,0.9353822607327862,935.5668751079777,0.6067282425761379,0.007412813292588908,80812.43776000297
108.6257164914414,92.32133912800155,32.24166897641233,0.4564219116721115,129.6819148621729,0.0778700643063663,0.1433100362756106,0.9221997238356852,249.2745409345516,0.4325044971770632,0.06671050256583681,14086.790917885633
126.86188555628792,95.5605733519146,35.58942655911138,0.9906083274140262,475.5820817310323,0.7571666254125197,0.7781256612865217,0.4403129757519056,684.9870433523091,0.5797113023371372,0.16799584430931871,60333.239625183385
156.57433125212808,94.88092260264976,37.67785339525032,0.2403266586965443,292.976702249623,0.1503458747317665,0.3950405356814984,0.3599735181766694,398.4405565022183,0.5732863262499504,0.09095315984022602,45872.63122718856
182.16884532932264,93.31213814623122,36.26232588462979,0.5581019651830644,126.60486459724876,0.9587432969084372,0.5355083889644977,0.1015038583035354,139.4557468338662,0.7384272053555692,0.4453282185504889,23063.461996756047
73.75958720860369,97.2420491280837,32.306789828640184,0.346591540425331,335.204788795251,0.653565152681102,0.0760893713495762,0.5910620780489892,533.3316278325445,0.16116564882918039,0.6038357910776072,24724.566851884894
89.7969541097948,99.40176063301055,36.13738646631179,0.6957014992308103,403.3992610124528,0.5504924694659178,0.0993827789508601,0.4932644341051064,602.3817692141785,0.15082410799811546,0.4957829980588734,36224.02492906036
154.35127791155514,98.87818114965,35.432881266718404,0.9164056772621192,148.9660466177184,0.2511122868190061,0.0712526853213649,0.7625256770939759,262.5564821789069,0.349489311214335,0.23321986206596315,22993.09966087713
71.5487261284697,93.30600809970002,35.65816141624423,0.9794689652191764,244.5564822521592,0.7048969089547961,0.6196641516197087,0.0381316140914727,253.88181565696664,0.43591515947683646,0.26809756388796735,17497.7047716017
106.5643325711113,91.52147886919516,35.39879963587781,0.1544022306867432,51.57988290979278,0.3480955475078741,0.881189236894309,0.5053353209771434,77.6450195959764,0.6717834237359144,0.041357497633103854,5496.575796378137
106.32632472664896,92.51788453346884,34.54215891199785,0.3036977557633671,58.65426655554208,0.1950302317891543,0.8664151295248242,0.674796429601556,98.23395620811982,0.6367154203078973,0.02605308825229768,6236.492592387993
137.40317199694724,96.78903020859708,32.10727090420891,0.857989072189234,159.51637103286922,0.9419105448514798,0.9897228904663063,0.7871228629394419,285.0753536859715,0.6375404629557773,0.009680117840379724,21918.05536535818
112.632218285901,98.8274207620708,33.56676286659846,0.749940021384965,334.1631052097376,0.1927435072123684,0.2852636619415328,0.7826207890770093,595.686098289406,0.2915375918491951,0.13776078852951396,37637.531809077664
158.0435006774265,94.42154113786584,33.643055114595555,0.5930837295734978,344.1023264953368,0.1207383527089864,0.3424999930081374,0.0763933167953057,370.3894445332968,0.5756786096484136,0.07938546775034454,54383.13627056979
176.42616641476775,90.18456419043022,34.48098282238023,0.8062968890465104,247.44299929323336,0.5218157013832556,0.0059417558443544,0.0457266147622726,258.75772999753633,0.6564790625983589,0.5187151998898858,43655.419771477245
143.95727718119028,92.60211367935752,37.718097056242655,0.163733231247188,489.73230796774817,0.1492618969888062,0.6883967049269083,0.9682983146601692,963.9392764075537,0.692340018661366,0.0465104989305724,70500.52960269716
153.14228263168508,95.4536285213364,35.67247590922315,0.8841456168556552,450.0462373503496,0.6307549980407676,0.8085861694290979,0.1725857940492721,527.7178245823469,0.6699723888340456,0.12073523032672519,68921.10807763366
85.82800791414444,97.75190769293906,37.62286980089073,0.4933702744817275,64.61659491615262,0.8225360189134717,0.6707195257070481,0.9967264010577332,129.02166101553485,0.3600173672431213,0.27084505043086443,5545.913619848612
114.79651143414888,91.72099852649862,34.33775610414806,0.8132515136753193,279.10116161999565,0.8883258147026221,0.5218274743638449,0.7701116522302854,494.0402183345624,0.5823867010346244,0.4247729984041479,32039.839691194065
181.43635757383083,92.41206774628024,36.388070571111626,0.7684577773869874,198.37899821579555,0.6888664844255561,0.6694985765506946,0.4719379285564586,292.0015717028635,0.8034891822144378,0.22767135366916508,35993.16285541943
80.50552485826856,99.02901011163372,34.39703885156339,0.8351744324869202,127.38668082959433,0.9712962274285456,0.5008699533821656,0.7848913946638502,227.37139040753334,0.25492174845072274,0.48480313127613667,10255.331600139229
125.45440236020956,94.32333899878664,32.539803673165764,0.1699051719455547,197.06913781327944,0.4223518727007345,0.6083194014000671,0.7346544978530639,341.8468662958305,0.5617610418223875,0.16542703431922634,24723.190908006745
77.43707246918063,98.74933324350648,36.99335470102344,0.4786841869988146,483.4411884371375,0.5913425897986417,0.1511829193372542,0.9782236685813746,956.3548013334537,0.14931991968030953,0.5019416907444306,37436.27034359343
74.65987970093595,99.53072768622135,35.055269511476254,0.6450132465045372,312.1482633730701,0.5248772180055824,0.6436337881196206,0.991874544682311,621.7601799796081,0.2653503137388236,0.18704850588296149,23304.951792289485
85.56799668683274,97.62071653439726,34.45306197035041,0.5953873491524084,104.9241951865922,0.3072936432422931,0.8548341512373361,0.9161510268144012,201.0506043444633,0.41842166798583724,0.044608542540638715,8978.153186094913
90.71374864051565,91.30698253748314,33.097362633975195,0.9598727482714868,392.9769974676551,0.6738379611669769,0.811016110262656,0.7058620608962562,670.364550784997,0.6101841305154508,0.1273445189540167,35648.41656978542
101.7031849115324,96.12489507097084,32.729067017225994,0.4835363936056513,443.2188993260235,0.5981938785178935,0.2999914705537111,0.4506210479302757,642.9426642028196,0.34473472450374154,0.4187408172250826,45076.77367444043
123.63480684702463,91.5397412974383,34.391848011178304,0.981314351487986,428.1626774233934,0.4377995312747735,0.3100018527823053,0.9002770271276916,813.6276997811589,0.5504855363212322,0.3020808654323689,52935.80992234616
114.51544021483964,94.27840570627052,37.108632177986685,0.6221587328168805,163.29172394545162,0.1511619581882265,0.9023079734420988,0.6615767405740585,271.32173043600244,0.6188778268351401,0.014767318033868576,18699.423651053465
185.57378291911624,97.2541212319297,33.677566223139394,0.6323759176198357,270.71528324363027,0.8294002201989358,0.1772361977723534,0.717536863512627,464.9634784871972,0.5226299261383341,0.6824004787393237,50237.65920554051
84.3139545450857,95.64084921688624,33.901671731813515,0.1388923295949985,387.6750171908157,0.2510790240293453,0.9049768817816812,0.1367550236133875,440.6915233210661,0.4892183094659405,0.023858311782480577,32686.413777691756
94.06257538000324,93.39493915059944,37.54767519399783,0.3388082273262399,157.42796536001526,0.1375521114751396,0.2593916074208559,0.1864168552101847,186.7751915845672,0.39190632566707817,0.10187224817547039,14808.079858596975
118.1533256250408,99.37987865459498,34.495499197596295,0.2285063651256082,462.7864154588228,0.6130520258694786,0.6919925220567443,0.5639244579209632,723.762993929625,0.41332924057880993,0.18882460833606163,54679.7540405517
68.46303752020467,96.27619873982708,36.56666353091155,0.3036426262825916,156.79137240263822,0.2097389939385658,0.343267157072404,0.9868768469417204,311.5251476270189,0.25462925755652643,0.13774248576204814,10734.413611646203
121.3917354041952,98.91455064556372,35.28872038989091,0.1546923415566168,396.154041593647,0.3848562624930535,0.6675482723343372,0.8272769548719391,723.8831507834508,0.4295741010467147,0.12794612936876545,48089.826596438535
167.755954264212,95.77077442631766,34.79522785217821,0.668792209718322,424.2062742641877,0.1275912392873771,0.3293873219865963,0.0632243392506336,451.026435660514,0.5600097537380319,0.08556430266955695,71163.12834405484
120.92521325558518,95.02639804975536,33.936886986283056,0.5819732944260396,70.6334082686157,0.7733922246287723,0.529482882379394,0.0455042377902961,73.84752767440985,0.5035643246291046,0.3638942803225182,8541.359957851166
183.3301854007018,94.77129767395684,34.078181018650966,0.5588866506757626,314.0396585111246,0.8472094875733885,0.7438621448859984,0.7618130968758637,553.2791833033232,0.7605457818487029,0.2170024209792801,57572.948818017554
59.51412805074818,98.65429405082686,37.67030332036762,0.7118855865524574,298.82333668516344,0.5996401440689663,0.2437171321675262,0.0546215364890382,315.1455264736882,0.12680086572220634,0.45349756782395556,17784.21032403265
127.0937436019369,92.3103613794706,34.59214879780245,0.9119747065444082,300.2519936692459,0.8276711355691941,0.213712974852579,0.509722705566481,453.2972522340639,0.5087051934361657,0.6507870749870894,38160.14989936952
177.70389545639628,99.7598311939245,32.84929310592694,0.6551972049347345,353.8147344997318,0.0515548732662513,0.908153943227503,0.9677543233731216,696.2204734849604,0.6433074122598507,0.004735111816911006,62874.25659047295
98.63119881878538,94.7598169034922,32.106226670439426,0.725468741936775,424.14602868172,0.5442539093508629,0.4381223470808632,0.9066688146151902,808.7060057303155,0.4180712329759304,0.3058041091781275,41834.031283104974
94.95005711233892,90.7989368779136,34.387743663774614,0.8052604681990868,357.27676971300457,0.9205352312396275,0.9338670398513198,0.2300907920400395,439.48286463377656,0.6748590606692805,0.0608777197630264,33923.449689161745
85.49399074603275,97.57295572071192,34.702340458435586,0.6509348394520512,362.735357272631,0.0198799086972804,0.5953733665488935,0.6454905391663529,596.8775986132413,0.3417986817453307,0.00804394052949594,31011.6932779252
106.83310072550132,91.93738933024812,33.60236564143616,0.5952659708648166,99.2436821761907,0.0017248221098407,0.8299180309869587,0.0835822220003557,107.53868965197381,0.6447056702669505,0.00029336114063893443,10602.510294298621
146.77544690469597,92.15938204020136,37.37431504848801,0.8865982104517749,105.2330246035792,0.1601282401846402,0.890811894313803,0.3620558501724914,143.33325679265076,0.7747181198723183,0.017484099212625226,15445.624215323203
145.81633755255888,97.71546457312375,32.78942427127356,0.8644800425094009,389.0246517139261,0.1499770241515446,0.1158048893474077,0.0831617331324648,421.3766159817097,0.3724782510545904,0.13260895146502147,56726.14993058451
188.8652218146625,94.71368110172996,35.56191547668086,0.6144757509431331,280.4467349587096,0.3591099429675971,0.9338934381498634,0.8504522733622586,518.953298261367,0.8356949588192142,0.023739523655786497,52966.63480517456
78.56883793130864,93.6862065249829,35.77803591115932,0.6986836931329604,257.02980753107795,0.4199075476984676,0.3417576022985628,0.6668952708703423,428.44177064626814,0.36193446834848897,0.2764009510099699,20194.533291424716
170.5984922863129,94.8759843804956,37.176044421991335,0.2746484922210445,275.76634287935707,0.3638803936268833,0.6221976462801331,0.123760666084011,309.895369157658,0.6831576326627199,0.13747486918474816,47045.32231852871
59.45188739715011,97.77161196205594,34.62798648737333,0.6244493283854009,86.39138562444772,0.5936750743979018,0.7126612256467458,0.9050840377609536,164.58284975318645,0.293813707258738,0.17058586824157007,5136.130930228439
91.978507535037,91.84331348988192,37.64240823357312,0.697937869766406,148.7156292793715,0.9322678388381672,0.9514994392273524,0.9973206116397704,297.0327916326676,0.6399682301857395,0.0452155129739554,13678.641628250441
138.07910188574738,92.0246754209575,36.06836226072605,0.5332202488970671,363.7129162756024,0.8589123260956414,0.996762584986409,0.3144100263737953,478.06790387430453,0.7847685969643152,0.0027806556598603837,50221.152823581215
160.86526919633076,92.02656921990432,34.44933093552939,0.2704206049125985,417.6358027136943,0.5929542729274033,0.0432231514177789,0.2649071934978201,528.2705311147884,0.5662014442484689,0.5673249206048432,67183.09582956412
163.5832440231183,92.44789519029425,35.460565084615546,0.1582949795726815,92.1761897268724,0.4118982976099365,0.7226497023608565,0.4317675381985579,131.9748762457673,0.7654312309775638,0.11424011543917242,15078.480137212218
60.61545409462338,93.12405897679632,32.729708940917895,0.1098693244508025,105.2940109523687,0.4231134309957862,0.0715388218903764,0.8625892413413637,196.11949197756164,0.24453034396790965,0.39284439461635257,6382.444287322076
139.40355707076452,93.72400666035357,32.31047287801461,0.3912965029322203,172.15729835944592,0.8280549729692729,0.8210785774468501,0.9503354666683904,335.7644848362393,0.684945100927639,0.1481567737158724,23999.339766999656
145.0322272023684,95.57065932683918,35.066028581267524,0.408189527544139,340.96877771111167,0.6083090281035596,0.5377707777946096,0.8896013951243946,644.2950780567762,0.5611694225233352,0.28117820892082535,49451.4612379118
120.52156111314645,99.37525986759584,34.68525341279764,0.1562044201001036,319.85884140262675,0.5445720914888342,0.4671036923142699,0.2442394680881759,397.9809946901045,0.3530221703544917,0.2902004568230953,38549.8869016869
169.2260900499401,92.91516928151192,33.52776119991737,0.86598269400893,249.86489099905384,0.4090077367362732,0.4718429748376137,0.8098764150385693,452.22457316537043,0.6928818715352618,0.21602030950303053,42283.658544524355
123.19737105556888,99.97915134412288,32.696320756307415,0.6631004625684338,425.9130593805016,0.1813258561043131,0.3818576252218325,0.3396784377292254,570.5865419993452,0.3172412413458483,0.11208519530100439,52471.36921391219
132.69522929042674,97.09895433381452,35.05547150301725,0.3928513812051155,259.08218189084505,0.0250251015638666,0.0160588226801137,0.5058672985286884,390.14338534088506,0.322174593956143,0.02462322789530063,34378.96953106973
177.82619151232814,93.56888662280402,32.64294018156154,0.9287975420471756,178.11408599939998,0.3742644678507342,0.6437404583772466,0.8507306845860373,329.6412043160858,0.7503104057865516,0.1333352877621863,31673.349567972582
115.553244164742,97.2890213579075,33.04567207100816,0.8891727247235546,403.0295610548989,0.8867263831449892,0.5662048235071453,0.846700723350401,744.2749819316765,0.4306902362915557,0.3846576278772513,46571.37327418553
135.07605939616317,94.79040725674614,36.24888400759134,0.1803247764729256,186.88211493283225,0.3270996654000793,0.5963276050038621,0.8137482955675476,338.957117431483,0.572657873894687,0.13204110533448535,25243.29965674784
152.2435937246056,95.44200002113628,32.84635879695378,0.9877202159551668,467.5290199727875,0.4713681557014906,0.3743255646128538,0.9246009904217126,899.8068148905195,0.5373792649630555,0.2949230046780105,71178.29817120008
167.08377602548697,98.87753509413986,34.57312616783983,0.4035965779930733,221.648486947524,0.7901095122670945,0.0492444014082891,0.2604875790573491,279.38516471420894,0.380652824124592,0.7512010422885061,37033.86614952817
156.9342075577694,94.14067825767816,34.65553413994675,0.8053326898848777,271.98509730753165,0.4108431774809097,0.6442881565277788,0.197580944350477,325.72416968281016,0.6713630628318805,0.14614178403971934,42683.76571348028
112.08832324301514,93.7453615245104,34.943658129870435,0.7796287451045273,268.5237430985811,0.8188328992141178,0.0332855492634569,0.5040951146760274,403.8852501690965,0.3669873590705214,0.791577596408787,30098.376114858118
84.71482705258708,95.26768907269492,33.00225068802892,0.2114925087660057,419.3839871125985,0.4060125361882192,0.2363260176094579,0.4345026937193044,601.6074592157646,0.30102050940953473,0.31006121041134144,35528.04193686819
138.34282388338906,95.53429561163728,37.91584590611312,0.8670128724783198,79.92085782864494,0.567826091399584,0.8193187623469647,0.1124047112779488,88.90433877795977,0.626894801741942,0.1025955209657624,11056.477159197602
109.96718029306189,95.19280082395272,34.08056043152041,0.1134192377393271,324.8368227294393,0.2889578191407171,0.7616813559803183,0.697141350492399,551.2940040167006,0.5357393999132299,0.06886403563650013,35721.38945091364
59.052730471840405,96.193513059363,36.27816921373458,0.1859825868726134,340.12257701663435,0.3378538856953037,0.5826009367844994,0.6393387635014058,557.576124845361,0.3010154467533641,0.14101989539293658,20085.166867951088
113.58125870023544,92.7490833748224,37.0534975111954,0.5558150068903719,251.0754037339679,0.5129788419143418,0.7786521510749094,0.8225837321614322,457.6059463913936,0.624949621964928,0.11354676320182369,28517.460384773865
108.57987706036404,92.54021149095564,33.76593046538741,0.4831854534372747,445.6332130005941,0.5557035407203013,0.660386440271344,0.4367225581556666,640.2512897813426,0.580917003960215,0.18872445761783968,48386.79948161953
132.02578962432187,92.34194425616812,37.64684201087504,0.7115572204628998,133.65577020032015,0.5650177689061106,0.5429499379481127,0.7646496115903573,235.85560297080502,0.6211490683417091,0.2582414063389567,17646.008598544176
99.46272577374388,90.32063517094542,36.31064884841325,0.1668977851182221,152.23606393199725,0.1869119647905759,0.2449390456936563,0.7567798069785374,267.44524300962644,0.4959261542630581,0.14112992650604594,15141.813879742385
60.71515648997095,96.99027414042096,35.322643725766625,0.7010742000157124,377.97536620503655,0.0972542158555324,0.0331876302250014,0.3387444942436721,506.01244046672844,0.1171866367550828,0.09402657890189653,22948.833508492873
158.74315241465808,96.51336105800206,33.293654378493144,0.1489691149751601,155.5448453366239,0.5372081793948886,0.3841601830924817,0.4733541793328011,229.17264795038898,0.5274164577099394,0.33083418683976945,24691.679090586105
90.82491397124645,94.51546360973056,36.88431155852858,0.905239409884179,92.71940430452814,0.1133983273449087,0.4715825960942326,0.2182470547811538,112.95514121505443,0.41230682047058853,0.05992164974285305,8421.231919423986
63.683095131133776,91.18655703196252,35.9667835209543,0.9924379979769866,135.3936011657049,0.2771606138441947,0.8578009372825907,0.497746816956376,202.7853351821956,0.5477022272810589,0.03941197951082632,8622.28358318237
102.01113636049476,90.05339141969688,33.637502961946225,0.5521586750591821,187.22058696394737,0.418993685310231,0.6454418331834965,0.4598224309091789,273.30881237795296,0.6316594802464378,0.14855763297128646,19098.584826271104
107.60375200889558,96.14770953156264,32.39115681310815,0.9465728957256188,430.29828455243546,0.3693301688196447,0.8055031112598633,0.4231181975477304,612.3653191201423,0.5131956541194742,0.07183356875329035,46301.70990083345
106.7186935347289,97.98687370930362,33.97307172925394,0.7144812322601679,180.93129373308275,0.9542313574764216,0.2319849849836883,0.5446880934339766,279.4824151590984,0.28327130626328606,0.7328640103412895,19308.751286742874
182.9094266434093,92.26870516331496,33.49215085682681,0.6519550121577088,489.9755803426896,0.4051821038009611,0.0640000827523868,0.5283446934365542,748.8515781302457,0.6305130205710258,0.3792504156279134,89621.15246975308
163.8122281214143,95.06501201036926,37.630772318748015,0.4606293531189276,448.1613864320881,0.6902107766994678,0.2565326176109784,0.4314057036697853,641.5007647034496,0.5476616179818556,0.5131491994494469,73414.31526942253
88.30293801543964,94.93500364072617,34.70074563581143,0.77583555416505,305.22404583314176,0.8250389106233617,0.6561288043672019,0.2019408645119825,366.8612535185314,0.4475918634521483,0.2837071166396366,26952.180000025623
133.06102113288435,96.43867927555128,37.26151359122508,0.8828311292325307,484.5315752769166,0.5964100265846463,0.5654033919505043,0.0611376300122236,514.1546874554366,0.5078958232719089,0.25919777456039683,64472.266177471545
112.95857337006636,96.79316665313551,36.34281665978314,0.3501298096924231,91.94626665171432,0.0942223787475073,0.1176765126452989,0.8561495725959415,170.66602354737202,0.3033341718755554,0.08313461780335611,10386.11910768136
164.86693276503382,96.48746937236656,34.1086500408241,0.6432800720553891,220.1696683523338,0.7788926451025717,0.7839169288465484,0.6017644421104693,352.659945998023,0.6662756960444982,0.16830551485259912,36298.69790914401
79.8455397008953,98.19230576840104,35.36227916082061,0.9582908058669442,142.08146265155892,0.9466387272149526,0.5118277606625545,0.2539663983122221,178.16537998810784,0.2813855527320509,0.46212274730807257,11344.571066906321
189.9332006106497,94.20290260054256,32.126148843317615,0.5675074898658007,66.19542299090054,0.4579191671996209,0.8614748123426943,0.2673375624116643,83.89194601609692,0.8324783245192526,0.06343333856820463,12572.708554437524
170.1099306687323,90.37747316967432,32.53385321521603,0.8136942862532602,179.69791233014013,0.9659502051125736,0.151610637930476,0.1277829545738432,202.66024249843687,0.6756600725106918,0.8195018783063821,30568.39940779607
84.03650588598754,92.85133175180708,32.4557617217895,0.1650795172955123,300.60078722289245,0.9326299657393596,0.0197197322043125,0.2624480669638401,379.49288275734915,0.30661057010475384,0.9142387525692622,25261.43982478909
132.37514847746814,93.40876539583935,37.2321784090572,0.9571786252781106,433.46280373451407,0.8369388448099562,0.2104622171420034,0.1471577009637233,497.25019338537476,0.49039313009548696,0.6607948399189857,57379.703003815936
124.04391485071427,92.22521044177446,35.29493414474143,0.8960241822179748,289.57940925211085,0.4520935223903841,0.4914913022595225,0.0788066980454074,312.4002063172094,0.5855549866635388,0.22989348832763964,35920.56358378898
