heart_rate_bpm,oxygen_saturation_spo2,skin_temperature_celsius,muscle_activation_emg,training_load,hydration_level,stress_index,sensor_fatigue_index,injury_event
178.33303153936382,93.73640818466698,35.198183368929534,0.6888756893806504,488.44293674198633,0.0731750987680021,0.49967024372905344,0.004401609003786278,0
125.92366504563223,93.32912096231404,32.827392930382004,0.17202931278934297,57.7278457980663,0.08947838298241739,0.7467467725125942,0.00033015925947643687,0
152.86288669787137,91.7615391250286,35.547457434503684,0.3180968303083651,476.44324388649005,0.6519737139229607,0.5626667806563331,0.4722634607952153,0
113.86652022629936,96.07266670101488,33.888713742301746,0.7963114118313257,215.9048407321151,0.48694071323924826,0.08330258311179639,0.02929370500537065,0
140.05466796822915,94.7662416050863,32.31409260085761,0.5758172683109377,54.54068225984668,0.7904152503192102,0.1855802367835554,0.9745325536623746,0
100.97775155185101,98.65700992324004,37.69193694623939,0.9351721556083402,360.1207542760287,0.9162708373435314,0.21932818403091914,0.22206517454139196,0
95.65646767103513,90.32109580482059,35.84894221438573,0.4858762675072189,491.2431368141094,0.38836687767154754,0.2578642536448449,0.4726647293648447,0
133.06102113288435,96.43867927555127,37.26151359122508,0.8828311292325307,484.5315752769166,0.5964100265846463,0.5654033919505043,0.06113763001222361,0
122.24750601483734,97.62948878511561,36.05633603007952,0.5040598937304138,122.4216550410883,0.5006966277953099,0.5039657798253935,0.5220484161712585,0
133.23740983524743,97.59486569188307,34.14190215284068,0.9813234508317867,131.56151272976973,0.9816106556424329,0.20316003836420893,0.3799561251474085,0
93.6991784737481,98.86073967095525,35.07612843397287,0.9638509432589891,304.49251157884703,0.8310844073565952,0.06755484345568707,0.044660028877223756,0
104.53930729529435,97.29033742829495,36.054480562083064,0.3962230350004723,336.787171892746,0.9117377082773536,0.17143220447471808,0.33512426669622475,0
66.32622468490275,99.27810061647696,37.76151395120863,0.8973313033751229,382.7380611496395,0.2543400875776042,0.9843813126186033,0.3914360202228556,0
62.05731025674777,93.32656599820892,33.52201675473018,0.8628502367940843,131.4726622124664,0.7725264231625943,0.46854694979147227,0.98992149127494,0
89.2167125058572,95.03209416751542,37.24986235174471,0.2896123575948065,481.55318904399553,0.2654732249976489,0.8673455047021125,0.20788587191937546,0
65.02332600962367,90.14079663282891,37.54446683176562,0.6618613607049427,337.432665330157,0.2087425334283899,0.8487524666688433,0.5447796153700997,0
69.00958566569,90.06957587303292,36.02249308795374,0.16541408403083338,431.1711134917497,0.9442661596555508,0.5115195574628737,0.9873155491986286,0
164.7453347281815,92.4012662045152,37.587599764408026,0.8530396485251155,293.0295718778773,0.019304416717866646,0.7066877084605435,0.7920192079401351,1
60.247949097253056,91.00807197139085,34.38727152486421,0.2570912951531469,236.42458141544716,0.9653887036634297,0.19275201041271228,0.9933675008820889,0
143.95727718119028,92.60211367935753,37.718097056242655,0.16373323124718808,489.73230796774817,0.1492618969888062,0.6883967049269083,0.9682983146601692,0
91.79529609007906,91.77043294528397,36.21669726299585,0.4601971859849301,311.9546168689262,0.8194380817932682,0.2723845792632895,0.4895395420941543,0
172.65866689559707,90.28520024838649,32.25203460451287,0.6192299247396791,440.0931122596305,0.2759225530681031,0.8320620967541508,0.6963758498705658,0
120.47395841796244,99.09304146406049,37.44123699091432,0.8694252627037939,478.98157836483045,0.3507023274307274,0.08372413310890992,0.1104431269411511,0
96.25282200925648,90.08223131388891,34.906836854199156,0.9768182729695628,353.9095821538967,0.21675771132198496,0.7731386728852775,0.44114882504680186,0
124.88125631807367,97.36082144337085,34.761961908667,0.4955432613128773,297.02240533340375,0.5855140424810796,0.09993690656861953,0.8090185422666974,0
106.5643325711113,91.52147886919516,35.39879963587781,0.1544022306867432,51.57988290979278,0.3480955475078741,0.881189236894309,0.5053353209771434,0
131.18064373042708,99.122296219996,32.89630728062737,0.7742040211232836,68.0088383325527,0.6573930394946632,0.3042045181350037,0.7026990328172319,0
70.46193722405701,98.92795939589885,34.81499629140439,0.6086559306015437,140.38304722300234,0.015647317942065975,0.6543933648305748,0.745751329984277,0
189.5937178796944,96.53901146369257,36.98676330030648,0.5031022103600168,133.70379433519787,0.06437488351503962,0.48750227862027984,0.2534691412428939,0
112.45004348905687,96.72234149800605,32.09289475482509,0.3783419909129707,164.6414578399304,0.09966115273124865,0.366303145262339,0.8756993729425655,0
102.01113636049477,90.05339141969688,33.637502961946225,0.5521586750591821,187.22058696394737,0.41899368531023107,0.6454418331834965,0.45982243090917896,0
150.87832952269576,99.84871566113603,32.014727518663065,0.40481164401132785,212.02947209782772,0.8147961726599761,0.947522980551238,0.21018510362154375,0
104.12641987686987,98.77832603575814,34.49426785489909,0.7813106809726242,239.24196053099445,0.8881779103783827,0.04126974737462186,0.8654158817884438,0
167.49203117888229,98.95106225730092,36.369893062962404,0.589504326843377,94.4898523052066,0.24481074006090076,0.9188528558831043,0.41781880610625366,0
116.32654778865741,96.59244537050871,36.79263097468777,0.8891629967387008,69.06286937875191,0.574369724239014,0.6090816550210135,0.7503124383797197,0
152.1403857908337,93.44786928654537,37.67113856676204,0.5891895231844979,353.27500208286057,0.7683649926926005,0.8073143007690523,0.5480330722215929,0
69.50618421965468,98.93648649090481,35.65102767782472,0.31443617200593704,291.80067117938495,0.2888294299196087,0.3838749534342776,0.38187175223450043,0
169.2260900499401,92.91516928151192,33.52776119991737,0.86598269400893,249.86489099905384,0.4090077367362732,0.4718429748376137,0.8098764150385693,1
154.32192821504484,95.62711543342203,37.54488769482019,0.6014971404370395,335.49797352575854,0.5239742026857139,0.868850751801164,0.584469931644613,0
83.58176509236537,90.99730972343882,36.65189452328226,0.28615693432920514,422.45573324159324,0.1348748464080477,0.4148479698098231,0.3905621024270317,0
74.6136113156812,99.2195563013275,35.44657089801887,0.6611570289605999,242.46180910229208,0.025982293725780314,0.534659566749085,0.10959787033512702,0
97.6994670779593,91.40770457771214,36.17384129431362,0.4219450884481848,338.5037592733907,0.15280580931828325,0.020194923084332905,0.8954453137667079,0
186.7695291143071,92.24896805730407,37.54589813004458,0.8599650510628593,479.1075007258214,0.6268536212535334,0.1585980058380423,0.035469585341666554,0
89.67226256655292,95.58134158128215,36.27436417083753,0.5079697647818886,427.83102313770235,0.07361826153368167,0.6416865079747998,0.8631873483680562,0
116.57717320779548,97.64093000212982,34.2102470455084,0.753797222296675,241.70036472608425,0.1896963648501283,0.7169769010638771,0.35996152488315547,0
59.052730471840405,96.19351305936299,36.27816921373458,0.18598258687261343,340.12257701663435,0.3378538856953037,0.5826009367844994,0.6393387635014058,0
108.6257164914414,92.32133912800157,32.24166897641233,0.45642191167211155,129.6819148621729,0.07787006430636634,0.14331003627561067,0.9221997238356853,0
132.12820208346886,90.0094304252749,34.31849337098349,0.9849172928251588,302.23498320279043,0.19169927116163443,0.4454054285778348,0.1517066155038984,0
183.67182268857528,97.57150580307439,34.43793819107348,0.8276142605294334,491.5977310122993,0.9112697889835111,0.3550947663631898,0.5669504756388102,0
124.7593660669087,99.85207325911094,33.00102940652501,0.2439467221302358,283.24180184113504,0.01929913222698476,0.4956613440350883,0.764432862370192,0
165.57948903398784,98.0991312030609,32.13851288331062,0.3499876445295296,467.43723463556626,0.6534319241743621,0.8703290345540943,0.7575838327190574,0
128.86223174680157,94.60206618156616,32.800287419826454,0.396834227970725,233.3007142264673,0.3844089309151849,0.7758614386586519,0.525631914599504,0
60.505976813794945,99.03767261399106,35.92772897478233,0.6853290044459012,499.48017223308403,0.6726487394323711,0.08398950138915895,0.6247394599064581,0
97.52611715061948,94.0984767311835,36.813732898182124,0.78129528354069,310.649015852401,0.5886917203634046,0.8903091977745643,0.7575269941328445,0
132.69918355719892,95.24934084243468,37.929220956361846,0.7745739479271188,69.02104740617055,0.22349875435464428,0.4717671511498236,0.8410276377574117,0
183.3301854007018,94.77129767395684,34.078181018650966,0.5588866506757626,314.0396585111246,0.8472094875733885,0.7438621448859984,0.7618130968758637,0
170.9825985664165,94.47623872665525,35.59627533356661,0.8297384840543361,173.55771305581848,0.4919403826093567,0.14003923126435214,0.35400494318124265,0
85.82800791414444,97.75190769293906,37.62286980089073,0.49337027448172754,64.61659491615262,0.8225360189134717,0.6707195257070481,0.9967264010577331,0
84.71482705258708,95.26768907269492,33.002250688028916,0.21149250876600573,419.3839871125985,0.4060125361882192,0.23632601760945793,0.4345026937193044,0
82.1583505603766,93.16717122025216,36.30587351805646,0.6079976574884319,174.07833664134017,0.984685553915239,0.43838089714093154,0.02446470275893342,0
179.53735100083793,92.58158167658479,36.52987239889498,0.957071246140996,408.44684932092434,0.7704893585012963,0.01686287008210441,0.36261695158546203,0
170.1099306687323,90.37747316967433,32.53385321521603,0.8136942862532602,179.69791233014013,0.9659502051125735,0.15161063793047602,0.12778295457384325,0
159.60926335414808,95.83195161883046,37.16749631109839,0.6208305829230182,137.44685924319845,0.5143264789098588,0.09208049312361977,0.121442615728375,0
108.01924042027072,92.29961415401034,36.878630282665064,0.6821250943141872,488.27100834699235,0.4736911322907005,0.23974417293825845,0.28153504010689434,0
123.09139508033351,91.48133922016383,32.20041803946461,0.9375058243320153,212.7403974897588,0.7554538093252579,0.10001809002432227,0.05337549417726084,0
117.68478554734563,96.53829963827678,32.54650648928031,0.4855085149914644,320.6192951494222,0.8802912630134302,0.6919100266195619,0.6885121884095631,0
89.20874452051531,96.81209257821548,32.294761363351114,0.39825472504837367,324.4916717665122,0.964145795865558,0.02903990220921937,0.07398888420190508,0
123.17878623008353,97.52154892257666,34.008461190796176,0.9795174085004041,302.2130669780758,0.3245519060324997,0.617740500624998,0.20328955543595617,0
59.11703396012185,95.03576896338592,35.055733944079556,0.8770988201593001,461.6130845845466,0.7987045738426389,0.14070783082557425,0.09289971449411938,0
72.79440042215698,98.94054605203887,35.19408636772777,0.39073922615674217,353.49848211509084,0.2106455976355367,0.9451614571778969,0.06316773090303107,0
174.68959548280776,99.36342753398228,33.60600055861666,0.5174025376248306,231.67985184721857,0.5455743467454452,0.9330940731098543,0.26775166553954166,0
156.47676854924214,98.07370939792489,37.469581319361644,0.47357031610701916,438.0711730359233,0.17984814840919916,0.22550310252096262,0.57189896766037,0
112.08723522297674,96.35593482008187,34.20957673923148,0.23418611080429053,131.47830460218398,0.34739736175033886,0.6144212982230295,0.9646855564468417,0
124.81529890832343,93.03720953591188,32.273300935792115,0.9620373914319331,294.9065409246879,0.9313583672064593,0.028005319472458434,0.8755566543496063,0
104.94984960459695,99.8294492162022,33.80136266924832,0.4638811880977829,477.74766737469037,0.14609069977308609,0.9317885430511741,0.8759339254453248,0
155.00528206669077,92.74136167191938,35.18665653526493,0.8877961743741172,331.42893344618574,0.6324008951351965,0.5229873081917097,0.1760670360376576,0
160.86526919633076,92.02656921990432,34.44933093552939,0.27042060491259856,417.6358027136943,0.5929542729274033,0.04322315141777899,0.2649071934978201,0
158.0435006774265,94.42154113786583,33.643055114595555,0.5930837295734978,344.1023264953368,0.12073835270898647,0.3424999930081374,0.0763933167953057,0
152.5525828526507,90.56840570712389,32.78793949858591,0.12156524661184284,427.7168885920507,0.32597904376881215,0.0768494618612342,0.778468339915185,0
82.60808572352744,99.7849446467179,36.914987000577376,0.7877984354580777,475.01954593035964,0.5629815045152657,0.3929444393733599,0.06981630148556195,0
100.62594719746463,95.88433556416425,37.97687145274515,0.6228225084216505,172.81477738973155,0.18717860898849026,0.6699263421613231,0.5566956708208533,0
118.42913372279611,95.56952091664175,33.977252801143294,0.6630306251227774,126.34748656552348,0.8006236564128154,0.4698899080414396,0.24787557232395074,0
99.65705384273352,96.5579627989972,34.28972626505962,0.14654879429918813,267.795837649643,0.9721565095347499,0.38372217471945447,0.24344563402874475,0
156.91692702137442,94.97023647777206,35.70822514806174,0.2899344971877539,365.8380920708971,0.21475939996247206,0.1191570455404648,0.9907250552476051,0
99.46272577374388,90.32063517094542,36.31064884841325,0.16689778511822215,152.23606393199725,0.18691196479057592,0.24493904569365632,0.7567798069785374,0
73.66133171602051,96.12311288840397,34.352177208821544,0.36002288422343065,51.84565269357518,0.45493507179744463,0.10014328773835113,0.8369393582910502,0
108.87046102652104,97.16173876956431,37.42957710189089,0.6646951069139359,204.3208021265174,0.7477652771400322,0.8074987316566608,0.5719826853440126,0
187.28844842562134,94.16749060624053,35.36002393537351,0.6095673858856376,485.98670096050483,0.2816006102352514,0.13523982798472256,0.8710142873937492,0
85.49399074603275,97.57295572071193,34.702340458435586,0.6509348394520512,362.735357272631,0.019879908697280402,0.5953733665488935,0.6454905391663529,0
137.64141895733593,92.2700129933842,35.88003651895943,0.5943261442401049,230.59644977355077,0.541220628032894,0.3427404135888459,0.9461737047963453,0
113.45136172836035,92.21276591066184,37.71682308949504,0.3457259161082734,136.65924380607817,0.9566005677673076,0.2259783846551835,0.2813385860456368,0
64.5883166326591,91.61416987687574,36.767313766530236,0.3200567476099827,210.24035318963615,0.39127685540694557,0.6394684394921037,0.595319545782895,0
120.86334180973803,93.71994759789162,32.24007878321075,0.22335371518292313,126.42774498556157,0.4201345541831004,0.45700230937694064,0.6901313479368921,0
149.79218436752217,98.47012035389083,33.99385946443976,0.8641637874131429,97.83761959082813,0.9689017171140379,0.40014546728455913,0.39293730502780666,0
124.28469673675554,98.27912062149065,34.823268109707335,0.65483142268712,458.03406765764925,0.6946076116267283,0.5928520048922216,0.8797079824040532,0
172.73431860578845,93.82824207963503,33.88710543325463,0.2678599112536538,498.9426522689631,0.7191719228421252,0.4912676284900007,0.9798031631041544,0
94.00649724877366,95.89118735980236,36.20112536498274,0.25948844183911557,123.85149781810564,0.5627020053710676,0.3034842085515608,0.4937694913726616,0
66.64363812603527,97.20816316474915,36.95761489917549,0.885732041373523,74.53515149522588,0.9746092108632416,0.5590612877652517,0.39064065480433907,0
181.43635757383083,92.41206774628023,36.388070571111626,0.7684577773869874,198.37899821579555,0.6888664844255561,0.6694985765506946,0.47193792855645866,0
106.05650718630957,91.68141085894747,37.935999720969654,0.6934591719148342,257.7466313426369,0.8950327516051695,0.026693158586854282,0.8527367457319316,0
132.8147494462405,99.72095993212311,33.63528588735817,0.4661776967853698,142.16956118413452,0.6993788657332212,0.46587172890767536,0.6454684255181676,0
161.92042202757645,96.17557313209619,37.24993697014653,0.3357780078506658,185.6412103093513,0.735115824840396,0.05768328458354377,0.04477237251809507,0
98.78234462320339,99.81415721833665,36.59973599104692,0.9815056868015414,140.39183106124597,0.2904109221422465,0.18640541406811106,0.5421699104457148,0
151.6822126539775,93.37755987132229,34.17307254534887,0.8175156175205202,398.4172557946031,0.303478698013819,0.5605087340779731,0.017300122740969814,0
73.28154472540679,97.03031699974132,36.404747261941814,0.37160130082264886,370.66007446126736,0.7829846495760292,0.8661889152655807,0.7785353710034054,0
94.32465587274322,92.22603636541238,32.62445573850948,0.8628083166506452,335.7281820924418,0.2967062891698996,0.8828056791884848,0.32831227354246373,0
74.5359358784302,92.61200171273913,36.736000894043315,0.7830387537532133,224.24803568564215,0.5627700708015316,0.06994401013863127,0.47200748211732935,0
164.5161253841833,95.11902121269624,35.19398361552262,0.3673724948901985,459.0684235914062,0.24935231090670196,0.4191050862867066,0.798678105907632,0
85.05764675561602,93.19618125508072,33.75374103625552,0.4838975688174757,486.289643690759,0.8169833808090694,0.5830064830045513,0.04644881728576156,0
151.8494799797034,91.67621563840585,35.93466381070508,0.267358100851924,128.1376906814354,0.11050135122769,0.1470699045503434,0.15854153559161044,0
182.3452836281631,92.62880701989326,35.84971999228645,0.19994719994029841,150.35568863534513,0.8294466397616644,0.7654322167447717,0.39796037644511484,0
126.2492482242984,90.35748394465864,33.2569173363176,0.7504858295557271,286.5339626001663,0.6027298005076018,0.7442352584372388,0.22992516354556058,0
127.90394095519284,97.04423621477487,32.182384488869154,0.34076067161848,91.06275617701039,0.18690953482707728,0.9033410137067946,0.3379014257750631,0
117.23953169320463,94.92116657085862,34.60173552141004,0.8380534291716283,246.40177947040075,0.5420353855061182,0.008486012083443017,0.998174737892465,0
98.99516935814177,90.94243066404526,35.417071216066525,0.9960478403629834,311.8060691499696,0.28249883684734045,0.21668424398900266,0.8254144375738107,0
119.2134291748638,91.71693993128491,37.25963167022359,0.1689578325366838,284.9331070117999,0.3234673347304966,0.8271867142453218,0.8839018149601086,0
136.37901685601253,91.02534538112644,37.569300773885566,0.5257316125753303,198.90886238511172,0.35152804159688034,0.6705800508269354,0.9370546335657753,0
188.10886224303903,96.12592808275876,35.1728313089406,0.8218563033797227,294.1006127347431,0.06331924697232094,0.8943898536984908,0.34093588031419564,0
181.59821550796028,90.94210363612494,36.52282090261127,0.8100558068871102,481.46042941648153,0.9859616844014174,0.05717965453026652,0.2970769577964727,0
171.39064936957143,97.54282333035216,34.635819633967984,0.7839974424978716,142.70783193111922,0.031534628131224096,0.5969639657164428,0.2340624925720749,0
175.0326223201559,90.20510919320391,36.47649293943736,0.41409544177171986,344.6741112773016,0.6624968731842784,0.5690465748936742,0.8301169113081226,0
118.15963974442579,92.49375787995892,33.228809149635005,0.5084679301165471,69.52851237022332,0.37122764775743056,0.03567441636053237,0.6795518622851849,0
143.75498416895775,98.90666675891907,34.22638840882119,0.6354715216073232,79.88738201664572,0.6460102909466989,0.5135220769124835,0.2361719824828773,0
175.83400759638891,97.18531318122245,35.80536799288169,0.9765465252159314,298.32270090061326,0.3562482530875838,0.6095203113099242,0.3769938292104549,0
108.04835327383266,90.72968332925687,32.10894779364247,0.3947925438446436,97.22263114757726,0.6737506462588587,0.19129317420210723,0.5067117639327983,0
184.83793457663828,98.2112610448518,36.33476786203372,0.930829498945172,60.0560547920858,0.7292355094683608,0.27332958312466293,0.5281400572737537,0
111.13111837933971,94.93035121540206,37.013213007609004,0.3424212263624447,127.18084894160998,0.6905526403996448,0.640347346297737,0.8887277285517147,0
136.1461598280841,98.46783027168829,34.39484996656371,0.9901670189263341,304.1821269498085,0.11396198135815228,0.46830094759995833,0.3805661329472163,0
150.8236362917702,96.00739774450393,34.68765450306299,0.7032373181448326,366.5034295335196,0.6568932346546846,0.8580136575683268,0.9085240305005123,0
183.32992176525167,96.81833032032858,37.10769327329918,0.5171603323226959,141.115353863621,0.2799875494540973,0.34238176600918835,0.44136756031978963,0
88.02319699705592,99.93501560395708,36.6539278119562,0.6520513852572444,350.7167467436785,0.028801370569333518,0.26665965838820116,0.7463726747923538,0
155.7276820622167,92.32335545924018,33.72889693420025,0.3452780521361861,132.1143489946532,0.41483067188895395,0.9848659403448428,0.930254319985056,0
125.31010412945109,96.23945574761389,33.94385663936924,0.34675647176032,326.0558419840657,0.43354310280380104,0.9111357701300834,0.9075757039632664,0
91.25521398378655,94.60321390057399,36.07326939434358,0.20219908945914444,235.3818559531095,0.4671741333524465,0.028992744998979858,0.056952867295681164,0
159.84192337251272,90.39451952922691,35.379188554688966,0.20264526793485887,344.2097792001275,0.7048241653907162,0.7707286153065659,0.20570429497656983,0
129.5500078234693,90.14470641502865,32.973377426578985,0.4129045673220202,497.7737386156613,0.3088438091424591,0.11033477382520296,0.4769054255322751,0
144.2314657877062,91.19228577817859,33.859579455375,0.7865699301067345,472.0176343546529,0.3152805131039226,0.02748519482937095,0.4315542899531073,0
98.59164425801663,96.49091740538549,37.399899661271924,0.6471740508383462,51.92679102624663,0.060552256241260594,0.2736955159663489,0.640891664837207,0
119.97198349672668,95.67163087913391,36.12904662033358,0.19232610429791874,448.4474439630376,0.686821215992296,0.2693458790611043,0.9447090508254122,0
138.34282388338906,95.53429561163728,37.91584590611312,0.8670128724783198,79.92085782864494,0.567826091399584,0.8193187623469647,0.11240471127794882,0
109.66295992642894,90.3185676252826,36.602075179884615,0.6412308642910598,478.87096377193023,0.34942511269378806,0.7106672459428351,0.45185866513424044,0
81.78029287943968,94.69302996360007,37.65184659286154,0.9647700191063018,176.82155559485813,0.7051889789173547,0.9816094273320143,0.1924110378871393,0
184.82146646256604,99.24622817842528,33.29713144322285,0.7031669206700868,221.91567368507194,0.5373577492268772,0.7115129003118185,0.8941075983979475,0
124.04811790575334,93.97591869310646,36.62890924890156,0.2576573773337629,91.23719232907753,0.46924494587053966,0.4182555532560479,0.9645801858016528,0
154.07924998883956,96.24922469788456,32.12130512088679,0.5264050260770401,100.52274124800931,0.5113245436611265,0.6989276609452169,0.4787016818903501,0
110.49137113006785,97.79818675623143,36.0245601302692,0.6836478377924837,377.03325435319385,0.6363481252670565,0.9994590671864021,0.10401029772814074,0
102.9427881434717,97.83925279141887,34.81569366872145,0.12543823094497994,474.9495060867312,0.6600026045745995,0.7101418825625281,0.7852946667226732,0
109.96718029306187,95.19280082395271,34.08056043152041,0.1134192377393271,324.8368227294393,0.28895781914071716,0.7616813559803183,0.697141350492399,0
110.24154691106273,98.57951945402337,37.174426113758535,0.21646270053871114,372.13250698706497,0.14074336339115323,0.9383650151902594,0.35467082661031046,0
128.46431565216375,93.91378093363747,37.125606155945185,0.3264979915409237,392.88638506871905,0.15663418119051875,0.11365126131168335,0.8874074739689635,0
128.36843244748403,98.88693214784799,32.13381022939186,0.486594211168608,168.26642354882375,0.6393908859030016,0.7047842934477269,0.9758318897827072,0
122.11576514418768,92.40227166395545,35.65703073469658,0.5386964263838095,70.35333391409671,0.872873285767126,0.850805957967449,0.5578538491301954,0
73.19608096385414,92.80216406990571,34.20699334592574,0.2242248480441071,50.84273476362586,0.4094962783455518,0.954378600220893,0.5657279113442923,0
121.9701895975717,90.53120624199,34.4939660090027,0.7060524212042477,207.7921773293084,0.16952016032946238,0.21096928971169937,0.29751350511377783,0
77.82902655678795,97.95581836542283,36.99224443531266,0.6365242555268813,158.65890268964722,0.7566024982938546,0.5039290077242442,0.5845060359833142,0
72.02833114992829,94.17055236232706,33.85903862916607,0.36501768895704423,78.04297627213354,0.8324894744194485,0.6805548476444818,0.43964232052484653,0
180.90717184105765,92.29116613911398,37.65829286382572,0.11229389509176281,130.78773162215003,0.8805824431209666,0.24746772950133744,0.3021910269280519,0
136.66825177494007,92.3179027761658,33.077802958232844,0.16988312381796167,106.02450422057652,0.6068314289137332,0.600472863250274,0.06718519652390131,0
144.03115784681887,99.01399941229234,35.976334540209066,0.4525252979597555,461.6952712778167,0.8607285593880847,0.25757878249799937,0.2527078597091249,0
109.24214549500411,98.33916600461038,36.03263040208259,0.23857691604911554,113.12024605662602,0.015414958448407678,0.3334570205316473,0.19785464967766442,0
177.71242040850666,95.53530885357183,33.51317096856751,0.4391376455331738,291.9418087944556,0.10723580176952352,0.44151869651086506,0.5420419845539489,0
141.12061609325485,96.16110800415721,33.948503653803215,0.6653643440593197,316.89767980047407,0.09257606705209875,0.529190098746567,0.6016700217635939,0
158.83793238568433,94.7432557055029,37.00879095547964,0.5925136850913552,294.5702559688852,0.712604684254733,0.4493658716251506,0.6085717243060165,0
104.75593331874137,93.9166654287881,36.570831529729716,0.3080582948236548,94.5753953971946,0.06958178354357902,0.4931955197879292,0.3881810010456791,0
184.60160391058193,99.15476881218332,33.974575281888555,0.4094402421328772,193.45926278774803,0.49636437246630705,0.2985887562882926,0.421229733685496,0
165.76227417137252,91.25612703520302,35.2037392816096,0.6526280786037856,73.07164960841897,0.4727068986362891,0.1589650940226306,0.83423842964064,0
170.2830425069634,94.18446789716228,32.37008177751857,0.8747695252391038,228.0514613433422,0.31070352355824093,0.04734997732683943,0.4762328135171624,0
78.24622610247683,93.44561907987875,33.25247529439177,0.7778920948649896,134.8695190722164,0.8704051699420998,0.1959787224916677,0.9877733321371224,0
91.58003306261463,94.98150720251148,34.91492335316239,0.5980600241500734,302.7346399779709,0.170433201879996,0.581943641505783,0.4396172300088649,0
93.55959095728291,94.57631874545174,32.51584241167527,0.4260636984848376,361.76377723209526,0.35246278439923984,0.7861154478031324,0.649580944617839,0
91.5727451383276,95.18889531651081,37.05999412935162,0.42854614978762495,289.45393709211794,0.7741715000229291,0.16924759744289453,0.0503629989933958,0
170.48010188407886,91.39918977226993,36.30803726064589,0.8914755792379565,245.4065134751281,0.030422314393284244,0.10855535777264846,0.6533399244188108,0
59.30444735315994,95.13141501513277,37.66180202389097,0.13531921843649178,224.30003938551158,0.6729504002463687,0.7492903605492502,0.8514263944150061,0
65.27349851240453,92.42418813887211,36.160801435784165,0.9891843799782348,428.7612956436517,0.8163977263615706,0.3051583305372897,0.9424578385332962,0
91.97850753503701,91.84331348988191,37.642408233573114,0.697937869766406,148.7156292793715,0.9322678388381672,0.9514994392273525,0.9973206116397705,0
81.9828515776749,90.64834218786191,35.32707533414579,0.7130239291651514,380.398252787991,0.8762966404914849,0.714317970610373,0.2821786456492331,0
86.30104787418453,97.6265255875614,35.601311666371814,0.13419805357426795,390.8670461330536,0.31938411683368517,0.32675604724303087,0.5753700648257168,0
162.7223305491955,94.2744192085656,37.86182632775757,0.6449763474021449,238.64000327183052,0.5863641413229526,0.2895427477937049,0.45071798553214737,0
131.02209017542634,96.26643683311758,35.85277488118556,0.5363002540814024,183.7852696515377,0.07729349315046585,0.523698386271309,0.563817480575171,0
55.77903927455068,97.27593343304743,32.18471941316448,0.1952010162046603,261.74366872068885,0.2578700035480086,0.07914466827820943,0.15745295718984664,0
112.95857337006636,96.79316665313553,36.34281665978314,0.35012980969242313,91.94626665171432,0.09422237874750738,0.11767651264529899,0.8561495725959415,0
110.06446512479846,94.70500719089682,37.432812152824496,0.9012830105922861,70.66851450309049,0.31518729015396385,0.1758578813161925,0.9095689433445876,0
70.38261137501337,93.8789852895173,36.77348149876596,0.5949895742793576,100.2214397533513,0.875187213458729,0.7747235933045602,0.44966166311292255,0
146.27914146119673,93.75959909640663,35.50299963575254,0.4720749176565179,134.2152641580018,0.3471668396742926,0.5138573592691225,0.28042986157357686,0
149.78312043123128,96.40048796930057,36.0278210785611,0.16541394025672984,276.87956915211936,0.5618981030014264,0.010567122774442939,0.14083342765301232,0
152.32058457203317,94.94794354941874,37.94115073551003,0.7427093746620751,432.111486272505,0.4333808481149408,0.673516527472109,0.6837648247778044,0
153.34357765040994,98.4913224798851,32.54397253105603,0.7325657410564292,156.03904939985915,0.4589165242987353,0.4236901786604971,0.3122318396207352,0
55.00713163586007,98.74701984326713,36.003468971799435,0.6526392462753072,470.82290483605016,0.9695720518365583,0.5108523649637979,0.9095385699133887,0
183.7793085193075,91.70560378006519,33.70038616742356,0.5592363815985844,479.7085590207515,0.29615446826385794,0.21411624341293556,0.67101247484487,0
164.9181835523795,91.36233651545726,35.84054237951702,0.49040596198663544,481.50707218034233,0.6273244695231713,0.5517822283941036,0.6456853251742407,0
177.03752903955353,96.30400926035999,35.645741455303636,0.633943983689193,426.9032306043457,0.42006266957944705,0.9791532397514886,0.5594021158982408,0
57.11184486650361,93.0122574806228,32.92074099264897,0.31005590655556603,213.72126835897427,0.06114618104768621,0.07344469100576145,0.04577633942872561,0
181.0709374310748,90.18570718765099,33.240479874441434,0.9471331577598829,82.70775995118038,0.48933083162423596,0.28391739966443064,0.931922435685587,1
164.32145137289413,98.88642669362955,35.72977746825928,0.6299150762622066,305.9684292949227,0.8133433290451083,0.24299759286082978,0.62793749329946,0
168.0245842994243,92.26900767243808,32.76937968382264,0.38007319991893895,301.40664977175516,0.09875296868168837,0.2485493107511796,0.9940619833831104,0
67.59379693746575,99.29280651685809,33.59108525078194,0.5047118657966415,432.489095199318,0.06959184739630897,0.3787063575653773,0.537356404772887,0
154.7350339040107,97.17434450878254,37.011473286428014,0.825116309989203,498.19597292574736,0.15363152039326666,0.8181097847441675,0.7101108919062131,0
184.58875310168227,97.62653489911484,33.96254903600983,0.2454544546572677,278.6707879520664,0.7644001113893061,0.9128586899643873,0.05620955786622217,0
146.6038910914517,92.0146149579316,34.92836093761798,0.36355206021423436,205.3418139679029,0.723995384144738,0.20221508745897332,0.6317361768234109,0
132.02578962432187,92.34194425616813,37.64684201087504,0.7115572204628998,133.65577020032015,0.5650177689061106,0.5429499379481127,0.7646496115903573,0
182.6600064961146,95.21267753824065,33.36289453302168,0.3839402858340015,52.15992116781683,0.4682264040926324,0.6368989721654803,0.7785142948525573,0
114.79651143414887,91.72099852649862,34.33775610414806,0.8132515136753193,279.10116161999565,0.8883258147026221,0.5218274743638449,0.7701116522302854,0
135.9046314519146,93.05431692683032,35.63874665326127,0.21740813845962476,299.98340001616805,0.7666978238334825,0.43407639419691957,0.22628262729366766,0
119.30566962173944,93.21462477947804,36.53203357702383,0.7864175534091477,421.22231591782884,0.8119422513018052,0.19197550585923784,0.9753984776052259,0
180.93423988364037,91.59629933252764,37.40992032027623,0.16151654336550963,277.05963555176027,0.8132623013506542,0.48821935919923853,0.9951821206249387,0
65.27143811334348,92.0518283339516,37.492837925441094,0.11133335140074531,462.4107568997254,0.642717154745558,0.4012148277113289,0.07559587516160127,0
122.651159611422,97.88551842008256,36.659840446235734,0.9084011669489459,332.63756445714597,0.45801462431594586,0.7955633625022697,0.9364464228117573,0
147.73857958703417,91.67195854547268,33.36998501955986,0.6232052952390688,428.1513071994874,0.8646777525856504,0.7636043591629952,0.28944919430436933,0
161.90738268700198,90.28457391843922,32.1488559802554,0.41664420737813035,116.7357806634862,0.9260074176032507,0.1339986812056707,0.6892840817509648,0
133.70751740495842,96.29354942628939,34.30264358213374,0.3093351732674654,434.90125863604163,0.023806043258343013,0.08851905256306758,0.33811092073613214,0
177.70389545639628,99.7598311939245,32.84929310592694,0.6551972049347345,353.8147344997318,0.0515548732662513,0.908153943227503,0.9677543233731215,0
182.16884532932266,93.31213814623122,36.26232588462979,0.5581019651830644,126.60486459724875,0.9587432969084373,0.5355083889644977,0.10150385830353548,0
63.683095131133776,91.18655703196252,35.9667835209543,0.9924379979769866,135.3936011657049,0.27716061384419477,0.8578009372825907,0.497746816956376,0
109.32002283808555,95.70387325367531,32.26382984972873,0.9848943879883711,466.9252785698996,0.8733694396494187,0.05815112056640115,0.42804779194207465,0
58.166967932355846,99.06354211095646,37.0195626747857,0.6715221095274486,64.4969122026678,0.3887951189614026,0.5265156165216303,0.3260234522779849,0
99.47124874554979,97.84061779828478,33.49245959774709,0.4985834554953015,258.14072448306774,0.1191000576093556,0.5394265145762364,0.6455339908801486,0
127.4772094260313,96.22515868412717,34.59336245294625,0.5420268722211959,191.0638804703457,0.08044320020933426,0.8607020325421499,0.13105574342166748,0
177.9573156188431,93.15056496607599,36.00760241273446,0.7142311596131757,349.28484799929265,0.15650789908045648,0.0976099982297075,0.7166624181336969,0
169.2848335328294,95.4188017327622,34.57651272111352,0.19141708981184324,427.8332244060464,0.24989319486736472,0.2404455636759093,0.9805921238047873,0
72.21246310071807,90.91244841304255,34.64772681679966,0.39551686642964634,212.1701547004563,0.4885183539308262,0.4065383138870131,0.8045587144686301,0
67.55910059002092,96.7894542428067,32.393767972014444,0.16774501690324348,242.10593929527673,0.7014979005657835,0.8658414754199422,0.8600167529095454,0
134.55109073215004,97.2509601889765,34.40866129556002,0.1660246835652276,491.8630030256364,0.9863985764852999,0.938883315070567,0.3596367431790025,0
126.83592628193566,99.65031622909919,36.589087359319905,0.2762553177048104,402.76242935564125,0.44150674328917106,0.9927246195936279,0.3248866064812187,0
90.96098159305322,92.60397358745071,37.491058023119585,0.5367279291339042,453.74185891930614,0.5181849423431099,0.9591934864585215,0.5170483546901332,0
176.42616641476775,90.18456419043022,34.48098282238023,0.8062968890465104,247.44299929323338,0.5218157013832556,0.005941755844354413,0.04572661476227269,0
180.19446527730972,95.4560846442715,34.54151496127447,0.5369463020492853,155.33429179285184,0.5394343554879361,0.04770834145387204,0.9453581344565326,0
109.35254417592196,97.06790504396814,36.215762637941914,0.40192894950478275,235.33855942390326,0.5177406571044623,0.14760681915758866,0.1437851730161922,0
175.19084521032522,97.90407475882988,37.65663200663166,0.17411769130308233,372.24136302418106,0.008774755061917827,0.34886209677027313,0.9030130391680924,0
106.83310072550131,91.93738933024811,33.60236564143616,0.5952659708648166,99.2436821761907,0.0017248221098407068,0.8299180309869587,0.0835822220003557,0
154.4702722970095,92.61752869037024,34.64086523922762,0.3441417278348591,171.711097527429,0.09766631812612292,0.8926561953354805,0.8226249276785601,0
119.25219936894275,95.12590925267297,36.77583946131381,0.6534407601254327,70.98615520771567,0.10155660342917883,0.18683440629458303,0.15196252587821513,0
71.5487261284697,93.30600809970002,35.65816141624423,0.9794689652191765,244.5564822521592,0.7048969089547961,0.6196641516197087,0.0381316140914727,0
180.2711171669979,98.60511486587446,32.66351806378373,0.20018288932979517,422.35058119082595,0.20491603251599977,0.9173619850652766,0.7194894502594087,0
116.30304010596744,94.7376015373872,35.76639641337359,0.29091285884974594,61.09865973410486,0.8947141047556129,0.4637317359313208,0.2802653001744283,0
154.15575044352448,97.99578644102003,33.12047770758396,0.5257850842894373,353.8955870632247,0.9286063295770195,0.10354357195278396,0.7144961527843495,0
104.56846494822443,95.80619760482354,35.06129560447042,0.9717524338113366,469.62314353118285,0.9758933378958987,0.45781365008462493,0.5550852504728198,0
57.54891860779168,97.73090141617112,35.17461960596263,0.7946287986429961,156.61753768003203,0.9390813048870201,0.37579490228805723,0.10880739023006558,0
68.57159842339784,93.32672986530324,37.25722017334991,0.9084062738465472,362.13567832744167,0.27188832191852463,0.577657996066007,0.9321300733011637,0
121.9896297311398,98.3141662193031,34.774965644074626,0.40034336362821366,488.79585549509017,0.5097768447035125,0.43865868440710365,0.45231417476347757,0
148.14518821205894,92.74572315551022,33.676654533415366,0.992834626400735,483.0251270686084,0.175454970196941,0.01734592685371794,0.734447277798688,0
100.18926908820268,95.4609880800329,33.38579808929619,0.19254953445774164,155.71813686311447,0.8062096551724331,0.9939977334136711,0.5010205720156251,0
148.8909419889828,92.14007113173874,37.245511260106014,0.14767561544149077,95.14897394543092,0.8884317051440961,0.5435402377305709,0.6043614749612047,0
149.31580457331407,94.75526521626193,33.02606512650937,0.8700423643486253,116.72714205316217,0.8512888392975149,0.47363075548460953,0.30277359235669243,0
150.03134748925714,93.18175209508703,34.55521136529886,0.9345383831862876,365.91605081696395,0.4333669486968349,0.954617371504054,0.20036030400345028,0
121.49045029276864,92.66703430637214,33.12303868956168,0.1815268217914916,376.591493953974,0.758673884686781,0.1558603675870771,0.5425702034080678,0
178.50963026640304,99.66985018028038,36.63982424068625,0.20208468407125735,353.40645273268956,0.09757916957626944,0.18923760254524824,0.440218972971002,0
121.04152992738311,91.6007410548673,34.846235839847715,0.12985674198019645,201.23527448400714,0.04024477061925069,0.8080147490627835,0.3901132134339331,0
115.78580112204615,97.87325837457395,34.10686214334087,0.19405680637845169,126.39962289115496,0.7532364143087609,0.26083108002500877,0.672567195094623,0
81.91641056643465,99.84164959483215,34.1665978437588,0.2884778351202528,311.3424913785139,0.4253552743286837,0.7992271062915269,0.6905066320111359,0
96.53343679310544,90.19901483740078,37.11328524033787,0.9730689570190009,267.6562005910399,0.9955492647395692,0.27153348290850254,0.04592005609126304,0
60.71515648997095,96.99027414042095,35.322643725766625,0.7010742000157124,377.97536620503655,0.0972542158555324,0.033187630225001485,0.33874449424367215,0
140.527264638183,92.52911805556288,36.30720710678758,0.8006977229666878,248.61203540852964,0.8556276815352337,0.517014723886716,0.41176455022637737,0
88.55232543015754,90.40487824328305,37.3822310975041,0.79852546332237,202.38786260891078,0.4799830655289917,0.19668643412686138,0.0968921611641681,0
96.06095935553779,94.0288957895663,37.41045005624385,0.5815663748012931,182.06535981155648,0.827150195503877,0.7578462929324711,0.23590086669828836,0
159.05996042468337,99.35217810170874,33.97105432602718,0.8177400799417155,145.16164402238593,0.8171272821701449,0.6411996332321481,0.051641797222756636,0
99.17485972679627,90.11765094366997,37.71470757887831,0.6362267791509727,169.58586928399762,0.9159920013620774,0.9236026679779178,0.9962420986170206,0
87.6964454217742,95.87885691929782,32.14925529208763,0.3830914878430218,92.67369747984561,0.2978500112861028,0.7829883572657359,0.7365572029698445,0
77.82279613305028,95.01396478595325,34.261013366096996,0.6049990978915607,206.0856549180003,0.9497993534620031,0.18077595484072684,0.08745015650275367,0
159.60588429456405,98.73384164371048,37.37479314505305,0.5801577275210621,66.45641556333119,0.15166696035762028,0.8001582366647964,0.020249379790092115,0
72.51034482865363,90.84001714520626,33.6478212789019,0.8411077483833885,133.88623122484705,0.08196877759349053,0.6417370448140233,0.7192878001522802,0
116.25675763379772,96.8152602988665,33.63848870192791,0.9835544956434931,386.0467000787431,0.43161551737234916,0.6689516417606249,0.43919216568266695,0
123.43556567042124,96.80109698433277,33.81573371049133,0.4699383088788375,196.4610449044802,0.8283229686418426,0.8322628859701487,0.786796709064576,0
147.79763821257148,96.69080016862283,35.67388030908153,0.7870516105972237,350.70665763980475,0.4734211306334456,0.5738240691889402,0.9234760378183837,0
140.49327011495438,99.42334494935037,34.62999665368612,0.1897867036343202,372.5978790187748,0.8292866775305141,0.4660035143530129,0.5993003890163725,0
164.4472908475986,98.23087529006881,36.36040901812005,0.7991482325034597,311.5334042294511,0.7296868057943052,0.636641035358728,0.18710842291725305,0
61.04144358004215,90.41972726243506,37.36946385538799,0.4342752207939089,481.4139836144293,0.20942838613893355,0.2979574289583591,0.7821940360464525,0
95.01949784521862,94.71082850704514,36.04519624965717,0.135451146600718,59.64793998040096,0.9488816248994638,0.1825971310870993,0.9558117431743745,0
92.81810603467628,93.97953056201334,33.22680032118545,0.42692156070595955,382.39369276466397,0.060781168629403415,0.6165878380712464,0.580231287059956,0
74.7122822549346,93.10147221090801,37.59609141416301,0.6495784758294803,481.4539897731836,0.8982797075437949,0.23384836908547768,0.6819974472807335,0
94.03906427061983,94.51336725154097,33.58695724008487,0.20732515091331993,438.0222782088227,0.304443448990374,0.07991510934660673,0.33747469503667304,0
96.81831740929196,93.84194184925977,32.899365771968945,0.9316310431872291,125.55171131225599,0.5001480831643993,0.000554184585253914,0.3815276946603112,0
125.45440236020957,94.32333899878665,32.539803673165764,0.1699051719455547,197.06913781327944,0.4223518727007345,0.6083194014000671,0.7346544978530639,0
144.60010465504456,99.79261865608643,35.380302443996996,0.9370060478498495,127.60332794440943,0.17183455691691618,0.3621487834802368,0.9277710984068192,0
106.4485693375949,90.88632974749581,32.68257477488391,0.7364237661421178,320.5887637166168,0.35814686640169313,0.752310970673456,0.6289883872243522,0
152.12848122730645,99.2223086983873,32.83265530467578,0.3967409578727833,370.4845918907715,0.19293443629279527,0.37517639831310245,0.7898479084853475,0
100.3823207082433,94.80236713471027,33.80018288357298,0.45167531293818397,192.6831962133762,0.20388647546052385,0.4860034482382267,0.17163501741537301,0
94.18829643749265,96.23742245499541,33.689918058106784,0.7667284282594697,292.77795829293296,0.18705683602638035,0.4070849728153849,0.21195909025797355,0
128.0603875406983,98.30182966617694,35.625437061992855,0.6413239907930867,360.91425653203777,0.48901738034659425,0.6505747911093461,0.5320346868333901,0
58.20170864128173,93.60463029149255,36.90047167683609,0.7044786293094507,239.60291747497175,0.7979313675113155,0.3561391620149682,0.17655419224284052,0
65.77153169059005,94.30421908087968,36.56809793721735,0.450248154862132,434.30698870495667,0.568970033761241,0.9637676499423089,0.6349950702209236,0
111.42588838418115,94.09518480278714,33.57490672829886,0.5390321336268391,397.1974708795177,0.8932065885508419,0.9361469865985301,0.291653185394699,0
182.29321603788713,93.7473102253576,33.47186298791588,0.9908807356341041,79.0994947327568,0.6365444885767242,0.8480279026572813,0.791532618666892,1
152.40409027886218,99.25529321646894,37.79474918064181,0.2925305834497459,329.50638459087304,0.6893401156326044,0.9203002705727481,0.8081103466143434,0
66.8970868825753,98.28929891193012,32.04941744955176,0.4760705678699183,155.89649793188732,0.6676072297270031,0.449139688459391,0.4637874557553531,0
169.25293172541797,91.08999989862976,37.27832319836129,0.36264086881657054,300.8832191002739,0.44945919318374117,0.5364303967894921,0.18081063503763528,0
153.86060403210445,91.08123352477097,33.19837111473443,0.7886003593958648,480.5997991848348,0.6893388222000828,0.7420925925582444,0.6467749610819326,0
137.47778096985817,94.2786951485299,37.68370593853861,0.7876113630991486,445.57790204851256,0.06970774646896116,0.6961459249385411,0.9927870182635864,0
165.73954968223893,90.9865737673281,34.05384370896512,0.36320091489765627,232.03238140180926,0.8598514719156631,0.8906785956054708,0.6225908979425233,0
109.55482944529922,96.1909309527112,34.642110643359516,0.17325128496968462,181.18123625495903,0.7778121434439174,0.7163310272566953,0.03577469071400785,0
84.90264186527011,91.43691607261734,36.242723683666284,0.11028940900498364,155.48258498371655,0.2452299582316788,0.9978847082284605,0.01729397576708258,0
124.12315752968252,95.22373263966801,35.526014308839564,0.484705479918237,289.63169139043407,0.7680324542540824,0.348505799831591,0.3203619704923062,0
129.09363700511898,90.07219947003718,33.90763597824094,0.46930383490219385,101.41180396612535,0.012642601400018494,0.8329977422394179,0.19578380686040486,0
127.67406022133812,93.16596348412646,35.32298549520694,0.9895508907758767,297.17375365771187,0.21724657248088042,0.6976348228326642,0.8130512071433081,0
131.2849618498142,96.77190723672655,36.384241306177316,0.5228218681279116,50.600137770856406,0.06513723867089594,0.6913864452150186,0.8448056670360005,0
183.0751639622894,94.84038940227849,32.254009675414956,0.3307765326178786,195.7323338356302,0.7802269166178947,0.3258355948449989,0.25861877131047617,0
176.80315911799124,99.78269485998987,32.06719583153423,0.9021064969283207,148.97044122376155,0.7558741511783872,0.7856017924230225,0.3256447769498927,0
173.22179993545683,98.74103796066211,34.74840163443735,0.5419611546882206,487.0484554823519,0.8136360238018306,0.9003760223475992,0.23624696771511466,0
163.19126947266466,93.59070779043151,32.79101970682108,0.63925807168952,377.2590438064905,0.004481693325528835,0.21854846152056295,0.908382547371264,0
182.36279448081353,90.45486541472275,35.986065748788285,0.18610183938539143,207.34402120800698,0.501232726678408,0.6254968371167041,0.5026493346222822,0
68.29677662671943,98.45626300115019,33.2843147373646,0.4446247665967966,91.78028893877922,0.7048361975173365,0.3921348291027752,0.6561370440820199,0
90.79164029517483,99.11234310314671,34.59710664077403,0.9498013070264081,282.5602676107808,0.15540112873901546,0.9895481192948771,0.4154820866996033,0
121.83255266336896,98.20627393419036,33.18602562124561,0.6305548457578829,146.05154659671905,0.6497907275126247,0.4788328158316816,0.6310141935045311,0
169.2821565716597,91.27949940919765,35.29090151449475,0.4100516696282155,291.393295654261,0.08411009930968572,0.2283201737969427,0.3858553767217361,0
123.19737105556888,99.97915134412288,32.696320756307415,0.6631004625684338,425.91305938050164,0.18132585610431318,0.38185762522183253,0.33967843772922546,0
155.9846898111145,92.58584221552773,32.138641116724884,0.9193699806203045,327.1066484456234,0.475796814994601,0.6538383898166262,0.6344800731734802,0
73.75958720860369,97.2420491280837,32.306789828640184,0.346591540425331,335.204788795251,0.653565152681102,0.07608937134957627,0.5910620780489892,0
89.07586475183562,99.08034876335722,37.72555064909186,0.554605046623607,293.46363007826517,0.1458691269538961,0.6036019202212376,0.29352795416794963,0
153.78977283008578,92.35687114330709,32.85371731166561,0.9628215885205798,467.2695346841341,0.1852233308309379,0.931224759178898,0.1493484503194734,0
77.23909119984275,99.08258554677066,36.25086951882101,0.2551565289686074,469.35620798927147,0.204446367065663,0.8503627876578504,0.3685766938381376,0
102.43305117841511,93.09481579194868,32.40755722533696,0.7476975330370403,280.7254404830985,0.23870080469897847,0.06767353665798337,0.4151976391419092,0
90.75694480483214,99.76413222384056,32.648962113411095,0.6530329073826842,187.591769214577,0.22655384852629123,0.9933898787390681,0.6286843334246048,0
102.2313287200346,92.81260020380475,35.05325750845601,0.7117076180265713,256.81415264574974,0.39514910849763674,0.6987269237038791,0.9145287636368638,0
150.623746625526,99.53435824757835,34.789225580926065,0.4160976676008127,133.95106048802705,0.6537896508367229,0.1622808243140237,0.03618479753292514,0
104.65936945427813,90.53544650892675,37.709481856639215,0.3824914361353885,336.3549418931402,0.43803178313446967,0.012416089169423494,0.2436610125418449,0
129.96054855207194,97.09272011669813,37.66901271812442,0.7157887035295334,275.041551102005,0.7759739087498881,0.17128263629215135,0.19371594227956035,0
68.4908034023453,95.32111133837003,36.677651855254794,0.29398895659409086,96.48521501597595,0.7192685059486148,0.8381759206857385,0.5022944086937836,0
163.67738858667474,94.7787707712273,35.612610980764096,0.4776892703731046,138.94150150382688,0.12652691404907568,0.02163932494516374,0.4297008070431598,0
104.93496446249685,92.2349431425584,34.729761904358064,0.2693571814476262,265.8343802897871,0.04884162332074393,0.23314730361808655,0.7290376238201884,0
142.55211146950123,97.05595789776493,34.13707120597053,0.10747435701099678,449.41504582348625,0.8779415639996061,0.7573055953348754,0.24241591254486383,0
152.9275962243474,91.90809491446308,37.68252528185333,0.9730516240342625,304.87582428399384,0.07983106656287342,0.5861105358981351,0.5944983657497586,0
83.30422448507956,95.52841795984769,35.61745286854811,0.48853268079077716,356.69075009381186,0.14833918071971308,0.7827357103601918,0.8838572635999593,0
174.43112296870225,92.53245363040251,35.47443516611597,0.9724146529778427,202.56284738475938,0.02213327555811806,0.7461505038267879,0.9106777399183047,1
138.19027396693866,99.55621379781356,33.39140673061349,0.2262911677910435,307.13512686990543,0.6283363652986538,0.05060138712180473,0.9587846047250311,0
112.87789413645,90.28631193835653,32.28018690731068,0.6286301015117375,251.32092018713033,0.5823705631583486,0.8925114190941515,0.7732611520799886,0
79.61524978305964,91.99728280111236,37.671131478557264,0.28087662951211567,346.6084606804223,0.9869036664352556,0.2270318342822687,0.905987906258915,0
182.21062661666292,92.42310606387447,33.882411553067925,0.8110667142669472,72.75900473555467,0.886932396317172,0.5533924402297637,0.23453087198527423,0
156.9342075577694,94.14067825767816,34.65553413994675,0.8053326898848777,271.98509730753165,0.4108431774809097,0.6442881565277788,0.19758094435047702,0
83.0833159689886,92.32730241870054,32.68783966151424,0.20134643413538061,183.19668131478514,0.371585840912535,0.1686282108850954,0.006488083780526455,0
100.59095458777031,94.91349090268785,37.02154597945575,0.9208580075887502,196.78327757505917,0.2968520342799851,0.9762312567009744,0.7068443574290983,0
164.3060248418899,98.72465523258539,32.16579099713558,0.27516668248290216,482.41284420112765,0.15240692003788137,0.488155956087309,0.9374671878137444,0
148.91648453407078,97.12063421409171,37.00394457259458,0.6516796074304243,132.21266572012223,0.13808365660200905,0.057642695597393434,0.18693534504167642,0
158.38087951662277,95.79961980535111,32.8417100767278,0.9870702580789337,190.0603636603686,0.13228370800960543,0.9372620447778404,0.6369435754268788,0
114.56214879874588,90.8900317798268,37.319384675786914,0.8941568812897275,279.4516590788923,0.11411475718677855,0.5862678431932681,0.7464597592217775,0
151.72429545669252,96.93992108389276,36.378635824016946,0.960907535705052,438.36212666733064,0.24051204240553692,0.6991931979813764,0.9276142351480565,0
107.17665258662835,91.6641428431094,32.98802157504383,0.4083388940963075,237.5015374428667,0.3066686303131164,0.5251757899342241,0.6468602240172217,0
83.52049378665652,97.86367385961698,35.39490795715681,0.19501807799751703,384.739376399677,0.9615789710389159,0.8347379547769676,0.9702937327487523,0
140.41139970358358,92.50056758510154,33.87593788613132,0.2695121859605051,435.36834419666104,0.5784732510018857,0.033133462193210894,0.34467314101254776,0
186.7618799558372,94.17048728320901,33.0693985934695,0.5504454055689525,189.50736011983201,0.987595774513281,0.26837836527714776,0.34992853377140765,0
96.9311311383695,93.50470202317928,37.15509319646665,0.81390671044599,226.73758259241947,0.37246694782567324,0.4696483564026922,0.5430125100143456,0
117.23089494869285,98.58813914674857,34.42113659904338,0.2351382797654877,210.45030065976033,0.45762663258944103,0.07660361631371004,0.3835018811159071,0
145.99018509443022,91.26544458713408,34.391262286192294,0.6937583790346814,424.78511387806446,0.32457865916527917,0.7059066693266582,0.0014257282875326238,0
128.10334808653585,95.65644882384788,33.01932004883972,0.3912198436355607,69.95608787912052,0.18288765089655268,0.39366341405564076,0.7317720250869874,0
168.86275242072165,91.42061609443063,34.298394056514674,0.4070818651529382,188.789489972906,0.14316470777757917,0.27266799026814403,0.7517170414784834,0
157.83526537338463,97.04795836132186,37.229701077973104,0.6957259571421337,355.7338509178084,0.9450791978078319,0.0033788468084122725,0.7469746046867705,0
62.8701225214182,99.05078127794481,34.17877226293781,0.5202994775798983,304.44957480440416,0.9868106817987558,0.7198303117499537,0.3450206666104666,0
189.78686657970948,94.34607653867253,37.709621374998726,0.8308299637233946,246.33021168216243,0.04490949650873155,0.8338093088728618,0.5222894733111719,0
156.57433125212808,94.88092260264976,37.677853395250324,0.24032665869654435,292.976702249623,0.15034587473176653,0.39504053568149844,0.35997351817666945,0
171.62694769970528,99.27422836482762,32.86939195584408,0.8109534427903347,138.9130636227432,0.4235240923010226,0.5642179770333655,0.01603640003064577,0
142.91169113287177,95.20991388649357,33.06386752113587,0.1578117232516788,243.8224797236047,0.18633347634440733,0.22768662592959843,0.5624489412714188,0
170.5984922863129,94.87598438049561,37.176044421991335,0.2746484922210445,275.76634287935707,0.3638803936268833,0.6221976462801331,0.12376066608401104,0
70.17170161537577,95.78329102704305,34.35656551354832,0.6905347430528489,455.5351048795707,0.12909634985963336,0.012137458315200522,0.0800413240914406,0
101.94460780050761,96.89229736362952,32.02624389369806,0.8694330908599641,167.37582326178935,0.45651175672179023,0.48864389709875844,0.7554990686967872,0
173.31682738660652,91.06883375087031,33.64323091823223,0.3274116649654142,440.52282597421964,0.2716946161692593,0.6442054818406923,0.009506202418105625,0
82.22345352103045,98.21110527741516,35.58577395917336,0.39447244524602165,339.90863037169186,0.3519050557586608,0.918191773229734,0.9590084436087262,0
65.56268330830306,94.35505027453259,36.79559579575981,0.583408673458066,59.15337398042044,0.09431265146274759,0.38133581712228426,0.5152553641125769,0
161.39605689260458,90.72348509897486,32.80033170255956,0.2904155258403721,376.08410160472715,0.4281280507101417,0.7651902029810298,0.9830164307061484,0
167.790631011845,97.86182669198213,32.66324818650041,0.8300406354287551,65.99834489707479,0.9832576109615698,0.5976870299435008,0.057997572472708425,0
76.95804945563658,93.76949971686273,37.53255592143399,0.7962729805051847,498.8215070662159,0.3288330468811903,0.9270121129250806,0.5835295488659132,0
170.3367076756666,91.00367495095054,36.506890206935495,0.23076254076920347,442.686509461039,0.876429274842435,0.3983776756594306,0.3493270359759112,0
147.7136524056179,96.3377903954325,35.53867760466847,0.5174467586349689,183.80468639302055,0.8431991416236851,0.319095339872988,0.8434824928142858,0
125.21116223423883,98.80131353433642,36.615120739975566,0.7973449899891593,165.83505358851744,0.9520584182972106,0.8871419986941438,0.3612227352342863,0
167.08377602548697,98.87753509413986,34.57312616783983,0.40359657799307336,221.648486947524,0.7901095122670945,0.04924440140828912,0.2604875790573491,0
111.59864865806038,99.57663474808973,36.55073448385476,0.6697961404459585,210.27513439149936,0.659596827058815,0.1363853929336768,0.8575531270999133,0
81.18918409015862,98.67705459766688,34.23081794764722,0.14519180931181547,217.55201827342148,0.8565844442274576,0.08240443458404445,0.374653091653261,0
93.45511134243284,90.02140919345476,33.46456743495561,0.6478198844763862,193.2244457537662,0.07564468065734964,0.8431099565764026,0.01683331986056147,0
123.1971424695975,93.8024116641339,36.37408052775781,0.23738768200054633,329.51003308174916,0.4628306571988078,0.010607423370319391,0.39028910083933377,0
126.72965701087873,98.18542579905503,34.51803375294361,0.8475249926030062,123.91864867428077,0.9892562386150588,0.8616571554970481,0.6545222690109419,0
163.75341156956654,93.66253005998475,37.88826262595717,0.4199045172224306,430.69158160070594,0.7696001512947322,0.4512677953712668,0.25435953880638185,0
161.83261769306515,96.01548506379706,34.096911093848604,0.35339847645537614,415.5811178140919,0.9620753780372231,0.0040252788539707485,0.4319875924251573,0
133.4844852226176,96.06316947374532,37.53036452318639,0.8568000790403365,264.4174435348717,0.7796343561334791,0.40164517721204185,0.05671513828222552,0
160.4060402543393,93.65025304038824,37.59777529140248,0.1451296207646292,433.7284843753464,0.8748819674421442,0.18680084104503558,0.5880927915139572,0
80.88941686964559,99.04473927281288,33.45111768238848,0.4569479194009103,161.21528151363196,0.706529632303191,0.624400487472163,0.7562949238603938,0
61.75871115759474,95.03228345386117,36.78932708952808,0.4330031865175282,57.904455066785125,0.7605020044172398,0.6793587899216466,0.4133125614011103,0
172.9405660556845,94.64784205937501,34.59844703086739,0.35632033682459574,328.6435662634204,0.5231780098395007,0.48752757040499983,0.42023263280146006,0
65.1998566579739,99.97513745661897,37.50514836338209,0.9205788988013294,256.0592331341219,0.9242377008141329,0.04051952543966997,0.08828249858491644,0
88.30293801543964,94.93500364072617,34.70074563581143,0.77583555416505,305.22404583314176,0.8250389106233617,0.6561288043672019,0.20194086451198257,0
148.8680581992919,91.78398251928581,36.4658223040242,0.1575308477727449,454.70273405828135,0.8438849656656322,0.8420387836055212,0.15467530312791267,0
110.27547157968672,95.13069422863438,34.801804454982786,0.7432187044914587,486.4665081046746,0.6730091009630523,0.7203242773264015,0.48168776866153795,0
173.3023859385937,98.1401673551993,33.366804534277136,0.5745692198159146,335.50391289002135,0.304579947087249,0.8299579189553186,0.5292555409507501,0
95.22727227940638,97.76860326898282,33.19610077366812,0.9107811049614213,393.8250154335973,0.03562979539013933,0.20050952355088747,0.94894013128426,0
56.602631800363504,97.88581765108471,34.55258716553807,0.38165105561352264,87.71379506922392,0.9356551294095445,0.8888879396564826,0.0732315042772339,0
95.58851147570046,97.08023783997912,36.53296794208529,0.6167457996486246,122.32201320117753,0.5861203488054969,0.3221934506479628,0.5998679731550471,0
133.04013163995228,92.54217829066688,35.6304289110846,0.5506797472668874,379.94216222883944,0.29814297114814026,0.013404814251991026,0.5264985273282413,0
105.7516806794446,98.62084085840232,36.13177573940326,0.5406048156048452,244.11445537460088,0.1491351078475378,0.8433916463290707,0.5162330979358292,0
127.20782202743196,98.93443465376265,33.693958104391655,0.5104948595654913,250.68437168198255,0.8295231655007547,0.9418212689647267,0.8731592873828264,0
173.34074604272752,91.94152696618549,34.888612075745634,0.2850665279790532,188.8734567359465,0.8365201944475789,0.6555581974173488,0.20553847069548647,0
178.18548232109976,91.30455636551395,32.26637158981596,0.7801389302431535,323.31037256498473,0.8145079681305315,0.23143663046342466,0.04077327434137146,0
90.90649872830514,99.75604968589113,36.905194495748724,0.5062024294653599,133.32427043729118,0.6450826919667862,0.2517444642825304,0.6722715076341925,0
117.38896389143659,98.68323963650369,37.93935297343925,0.9626646475023451,332.11232569125303,0.3660153875918759,0.4665928734356195,0.34515746413598014,0
129.1344420575959,98.93236147209947,34.44127437574802,0.3347275844734987,128.20948571085785,0.304070284780257,0.8978310796014195,0.017589916212524592,0
183.13018167991336,98.86376384624396,32.06578191878926,0.714469455664337,78.72171561937111,0.008554770118170185,0.14959765614755838,0.2513740072904138,0
189.81333808719194,95.41686824033728,33.01875583730568,0.9466453716751976,198.66095991457746,0.8336075586882403,0.825973669583487,0.3093267742168119,0
86.7799785936061,96.464017366658,35.915161266502516,0.6971124907144832,154.01315390443145,0.08743269749364246,0.29130280870515035,0.616838376784242,0
153.14228263168508,95.45362852133641,35.67247590922315,0.8841456168556552,450.04623735034954,0.6307549980407676,0.8085861694290979,0.1725857940492721,0
106.03419340148135,90.51206349190329,36.72718831751327,0.8447328637813055,74.72905424088196,0.5040749468400884,0.9202711976015386,0.413054347953398,0
56.094606579638786,97.45503085352773,33.52330406576641,0.4241059439401035,129.4761616583553,0.5266893589263512,0.4274938719943202,0.4824754444178325,0
56.24909052884682,95.0533203333588,36.58179149328281,0.6401115459455469,296.9238225123722,0.9267128453077733,0.36505065410553084,0.4592373913640909,0
117.17641102090452,96.4770907479023,36.12790412914202,0.24063520583022005,266.4802358813631,0.03161501127124211,0.8022213189713018,0.9739407666667818,0
120.92521325558518,95.02639804975536,33.936886986283056,0.5819732944260396,70.6334082686157,0.7733922246287723,0.529482882379394,0.04550423779029611,0
58.04690903741476,94.91811322322457,35.272928888341774,0.3073797746329035,53.26359260681501,0.05205239836730713,0.6844490484631971,0.9509681864523993,0
147.73520126453082,91.71789109477767,32.88364285098996,0.769363133457201,494.63057388251747,0.0381536059353772,0.6228292369611795,0.5819372139940333,0
94.69045746031867,92.78713715141149,34.7153870206135,0.5752525797029121,346.4756151614772,0.42981769814138193,0.15288884564479632,0.7957277149698383,0
130.58556870735316,91.58852691943956,37.287184037333844,0.4701046263684945,214.43275890570058,0.06307517434296672,0.8447903602895617,0.4303926180160754,0
95.62407487733154,91.95666295625342,34.527148278952346,0.3419173865502798,261.69451144845857,0.789143951292912,0.1957751114131362,0.45383788125698044,0
77.56313250735647,99.72977380420305,37.037400238852534,0.9988286336571581,169.94755420442914,0.5295630936483372,0.9322821440707808,0.8793264990158236,0
109.96845471084816,91.53113445772199,35.54152019155816,0.16453946879643944,205.19320266194438,0.029038782659774443,0.25057129142214785,0.8959344962919021,0
86.3569042467176,92.69270424305208,33.15126027861414,0.13920461251517802,342.0700102706963,0.04050068648191951,0.7338809732737419,0.23868888143129763,0
127.19813188408769,95.90589657738585,35.48663746818738,0.2955316604444781,447.26530949031684,0.6126685297394794,0.28465539349359203,0.19924187858461817,0
81.84185158867479,96.10178576236642,35.03589997494238,0.9739652127650377,132.8585103865332,0.8061118176584049,0.3177854085868639,0.4962351738699511,0
123.63480684702465,91.5397412974383,34.391848011178304,0.981314351487986,428.1626774233934,0.43779953127477356,0.3100018527823053,0.9002770271276916,0
76.24609950729712,97.93717425785212,32.71778263709642,0.6894349612949223,104.70048328322108,0.5545806715356244,0.7478922540260833,0.3223550934061763,0
145.58158578058095,97.85202867912825,34.50025198308338,0.8920960004857642,146.74650061477604,0.7998294540499016,0.5568151179693931,0.6520146153391313,0
156.78158739959224,92.37317704203892,32.43657425743776,0.2925655577567159,66.72887962234068,0.6105061740418192,0.8829524558474972,0.7081516877406011,0
69.90322162374106,92.8866630267546,32.592614308392506,0.9748378847589612,113.36533794184976,0.22476023765881947,0.30737271920404485,0.7786746648941558,0
118.1533256250408,99.37987865459498,34.495499197596295,0.2285063651256082,462.7864154588228,0.6130520258694786,0.6919925220567443,0.5639244579209632,0
64.56767958840794,98.25671445979478,33.832288891810784,0.19101266936349245,256.74743597827035,0.6282794590652135,0.7529485996631107,0.4024551782789696,0
135.75463014817032,96.97797033062524,37.553265955173345,0.2009903853225456,84.9496378002591,0.7341069808811267,0.15148211302995818,0.9670159887989729,0
90.69458022050213,90.822332215106,34.254234832281625,0.6158151309453082,481.87707711753256,0.6208741875568012,0.40058935731981116,0.6113307533028527,0
126.22930167322556,94.18264080902576,36.5471487324326,0.8028769606462471,445.54653849139254,0.969242130458038,0.4828174943504111,0.7285652116332708,0
124.85723626687931,95.59301872076827,35.181485158197454,0.43000046008716986,389.6071343906636,0.19728830871706848,0.3556873898943743,0.34498284569587834,0
179.78783673616306,91.87411287983777,36.22451401185401,0.9801063890075139,470.062756376401,0.9510906795670763,0.3221125959691381,0.6699491810030801,0
129.1262350467776,94.48226582108225,33.5606958980924,0.49097812430649657,149.05823937609387,0.5383394903500163,0.6864198939976419,0.2577976621641259,0
133.7047947619726,96.01025877488689,37.65142983702997,0.23540369569589467,426.36618185453887,0.671956140494912,0.21586639765948856,0.24509691752863616,0
109.22317197819135,93.273766801154,35.18053098148654,0.519370073367523,360.49603835943776,0.09946159745218985,0.7093907452511288,0.7147222018094264,0
183.12574642968028,97.80944818950488,36.9879444277115,0.7111334488801959,441.39166230545976,0.380575941378107,0.9350441963907306,0.5213947362629351,0
159.9200977743473,98.40449581638805,34.19027416085668,0.8490032024539408,408.6102045841834,0.7693791464631726,0.5651975211777511,0.6832766104223897,0
93.52971419088361,93.23609469434071,32.601268094303144,0.5128914609609336,205.92277842957125,0.7069110150989903,0.6114342367394741,0.2694384907480917,0
168.96829407979135,98.38657154492458,36.042269886325094,0.6342461434442507,398.479341657765,0.040139388165410184,0.06893270212408908,0.5987233410567304,0
113.37350862498715,91.03576566103015,32.046557890024545,0.34061024094296805,168.10533634320063,0.5465942634972446,0.8644769036178283,0.44393364970311255,0
166.8700643770352,98.37729098622657,34.85175785939305,0.6813248737649626,197.86647336262467,0.08827819296840944,0.2854477871998655,0.5969602868455279,0
166.08988921962276,91.52750431667617,33.15681141599875,0.9873747495553094,98.55757275033926,0.9958564291781623,0.6150511655285649,0.29087973224421937,0
80.49747521298534,90.82927152509725,35.764253026612174,0.14414821532901448,470.78447719121095,0.8972965885332946,0.9791121697448023,0.7154509636491239,0
149.6540527367829,96.41775404441012,37.876519238827115,0.897877603634651,180.9515135301267,0.021080660428536957,0.5955026005728078,0.8059293661594655,0
94.2368008563817,94.71937365755295,34.78641743792387,0.6060542524907705,284.28010932715335,0.8586495789026308,0.7247094874643776,0.25991647385772365,0
95.16151044901021,99.07890600412833,36.904989539154,0.3268887936060699,226.0997764097867,0.9194296005584076,0.4453196182237519,0.30062055985564207,0
95.0069903788784,93.63189196090849,35.04670512170673,0.9594007390083321,481.9676542625757,0.3535482225634551,0.06036584351505736,0.661154269719093,0
152.95171342059302,92.87152263437629,34.97504018662414,0.5350188727530091,200.77212692231709,0.7195016550477659,0.7975993494897885,0.6955851743035442,0
86.02651564199238,95.00734906144199,37.58254095907267,0.39852122650604704,400.34561964021003,0.4421037462077789,0.03499884126398567,0.7040996843974501,0
55.12228775822218,94.55946185768661,37.33979521248009,0.26334786544375705,434.937269584031,0.6552324845763441,0.7006578288878541,0.6826985047758368,0
151.55697522015546,93.44428046217189,36.714802791127845,0.3200069892309959,246.02292386643467,0.34031740429819146,0.022921573149636942,0.3928077169525388,0
78.10994041774191,96.93741298698329,33.777534519900705,0.8495641374322983,220.17731650381907,0.32255923663326835,0.8623052365766706,0.39485367440367836,0
69.10512336655768,97.59561833913908,35.27005049434364,0.6529690083854492,386.48561941968256,0.42443388885757904,0.15763603583298058,0.25481762364438143,0
87.06467628019811,98.52983969030137,33.34338339983411,0.9219210575394845,460.80319113780536,0.14556775865250116,0.5142714954425511,0.15683369989636298,0
106.28657051356504,99.72856604710343,34.66350018827924,0.3087716069420072,389.71927988250724,0.8311389644353826,0.5971507044831473,0.6925773793969057,0
119.2473542088821,92.66656192132504,34.90527839455874,0.20902471646401133,152.20686451633952,0.34869789536163665,0.4575454073734121,0.09318878597231284,0
61.01695549620516,97.16093482489961,36.98984024101598,0.105478777878031,449.7384863469674,0.40014955390584517,0.3407634893488872,0.9377922867867816,0
186.02739990469365,93.94258235495745,37.37617019194996,0.5570758338543944,224.41175034657488,0.8940546127021446,0.4678142961809717,0.8266863036714514,0
151.66851221164035,96.77081971951108,34.48772037437887,0.9984762373437893,309.3032353000704,0.49662381406317135,0.3114157538811587,0.8575057399572561,0
98.63119881878538,94.75981690349221,32.106226670439426,0.725468741936775,424.14602868171994,0.5442539093508629,0.4381223470808632,0.9066688146151902,0
98.02412973352864,99.93773102767932,37.17064303873613,0.3775551327686315,134.7776453302215,0.9564981247770985,0.35891299099803065,0.4086049707232401,0
115.55324416474201,97.2890213579075,33.04567207100816,0.8891727247235546,403.0295610548989,0.8867263831449892,0.5662048235071453,0.846700723350401,0
139.54305107300945,99.52491300434325,35.731291783342364,0.8035500393891637,318.2732590598049,0.1694667088884395,0.23792416224498347,0.15806130029164933,0
74.76036398951065,98.34969549481185,32.14982540260479,0.11387364946888534,452.0037388224237,0.47321502991810505,0.9886565549140125,0.021641794608235676,0
80.50552485826856,99.02901011163371,34.39703885156339,0.8351744324869202,127.38668082959433,0.9712962274285455,0.5008699533821656,0.7848913946638502,0
171.02366868252938,98.14419197214676,37.9157618126921,0.37047408151464645,239.30700666841778,0.3723662982286027,0.19416207741450964,0.0747966479969393,0
89.59441472502479,94.59159130375912,32.60416160662282,0.234706118125241,424.77939179007683,0.37157310851620007,0.47706674956727246,0.9885246673259216,0
106.32632472664896,92.51788453346884,34.54215891199785,0.3036977557633671,58.65426655554208,0.19503023178915435,0.8664151295248242,0.674796429601556,0
172.62169987826582,93.70320175450522,33.842899701139714,0.5217218239376251,100.49061504453928,0.11432311411912521,0.021806793124395596,0.7534497102421055,0
144.52495696897603,90.20236232639951,37.430528740329585,0.4823811343612099,495.7543457405306,0.7403047907559818,0.6795541191072888,0.24580385627786594,0
101.13110371112793,95.23993167464667,37.21604064744413,0.3599985694368041,176.17738036565774,0.7700304687015165,0.547967796793928,0.6738653939196881,0
147.2994386728238,95.05057800270409,33.426192561837375,0.25499648998632946,488.994437175779,0.9690129635029999,0.16955799437013552,0.04321993725495721,0
57.65723407649085,95.25250464830488,32.487126722302584,0.7860077106779524,132.13919795390325,0.773418210905363,0.8174764393049206,0.8378257199236009,0
154.3117591015343,99.74031224972063,35.76283036436671,0.9910988053614254,212.49249935330104,0.2433524940335987,0.36888462237400566,0.16962409303157244,0
120.74716546969233,99.1145400345484,34.01821227130226,0.8000124223777214,388.7912500266068,0.04011657828851545,0.29380202881550743,0.6973580668337706,0
164.77958988340225,91.61712778330109,36.03250634363638,0.3663432709043871,346.00028325718034,0.9854373843696602,0.828125191856901,0.22448050123272834,0
183.87608302087324,93.6888252155589,32.192718536406886,0.32032806527092006,311.505079968075,0.34045069554360574,0.6385250461916646,0.06845316942604274,0
179.9814541817667,94.23956179463262,32.80039541106493,0.29589928845934443,288.45462911225343,0.31197154243242076,0.8982590836748244,0.4814936785493943,0
177.75078086647102,93.60532917851648,36.11823339663586,0.22302556704013266,429.5481996491331,0.9059552097493825,0.6298837036711994,0.16928621027278945,0
124.14294405107476,97.98495963603914,33.27422393181499,0.5961974947230712,155.7268532750267,0.5850998985449861,0.7408176579321153,0.7294439883265498,0
103.61918540875664,95.24037669867587,37.14552605457441,0.6448603347580097,249.1119171470833,0.21487117384913457,0.8364458962596129,0.23756584338348485,0
117.77976883864082,95.72099816971625,32.35154532626081,0.7349523945968235,119.95353147040578,0.8890962427162395,0.05473963590993691,0.34247255623582884,0
148.13596044730372,98.53013558987925,33.29289189671345,0.7121920338403012,318.173718078817,0.9933608550547434,0.7760489588693803,0.5674392512644729,0
174.3396998776102,98.05928153415358,37.991361490910414,0.3630999801550442,162.74499092209408,0.08667856115083072,0.6137064818495768,0.2849682775773116,0
82.94315090501614,91.322115228203,34.59845661552075,0.3972799048571619,200.2289289545236,0.8622516283024872,0.06950779651519323,0.37798811620996164,0
178.95607639232992,97.13914584083635,36.21779398126786,0.713363081898104,262.06282248058767,0.390515697684394,0.5085779218687151,0.8156217710403867,0
165.04933131593504,94.35436128902036,33.09597829314208,0.41450287670526553,62.046763566407535,0.5240724465067044,0.08245807798395388,0.1792098495610257,0
187.14556204906168,92.946489030625,35.65921240991322,0.29136087065738175,91.37207116437695,0.9148159757649807,0.7359472017232224,0.08220158948193368,0
173.83398939302776,90.50018820902186,36.35663641021651,0.4369025383270656,358.6681493186988,0.9733791957751172,0.546501713897883,0.3283577851330193,0
92.7915395084074,94.87249560345451,33.88685981519906,0.3448757418201799,243.03649132287825,0.2621639104087994,0.9535735374122973,0.42437676701387816,0
69.30404803144644,93.55436680724532,36.97338267185527,0.17948144909672004,439.15559989995296,0.21285077095991378,0.18313537157176984,0.5426592821365677,0
70.15254471886446,92.51513039676401,35.6205054708337,0.8471250120489882,362.60240163988976,0.08051655859151186,0.6060334525203784,0.37242369617500704,0
94.31514800806727,96.94671729596958,34.33473805769018,0.8678002502413327,53.645423741295104,0.561797852662138,0.21158213457049135,0.7899117002228051,0
137.9148027379128,97.69485387315586,35.34585436005895,0.29777527015019156,327.52054884521067,0.013604395450668272,0.6140649847273983,0.03931948766847326,0
163.5832440231183,92.44789519029425,35.460565084615546,0.15829497957268157,92.1761897268724,0.41189829760993657,0.7226497023608565,0.43176753819855795,0
176.39879144251125,90.49447436679347,32.9932117561632,0.7649446936160615,401.4199309057224,0.07338401665200855,0.7223043293295386,0.3822559146564046,0
139.20670688984643,98.48752700565235,34.4163942192018,0.2903757632770724,496.1784597253259,0.405225782929334,0.8150739906826099,0.647578490806859,0
55.760227220987254,90.09959741204304,34.06058352811696,0.45409194049317425,289.03945740868016,0.039932189265609264,0.8535502279583167,0.966276251897396,0
80.15276483000203,99.37112493921472,34.405416335474754,0.15772172701364495,357.25077508735865,0.8352172606087689,0.07727172626717704,0.5103754066288622,0
68.46303752020467,96.27619873982707,36.56666353091155,0.30364262628259164,156.79137240263822,0.20973899393856588,0.34326715707240407,0.9868768469417205,0
104.04880420181635,93.21846635201321,34.895230444800035,0.8136120504966722,246.9189846892071,0.328308710357912,0.6871225203598057,0.30224939491319747,0
122.6823841405557,92.46477909576737,37.64189691943559,0.8239568022236816,435.2428995063727,0.8700479966063919,0.49858628739121214,0.030868132542461013,0
60.858619108105714,90.09005664264475,33.762058480150614,0.2863763423989394,125.34032648581305,0.7462660613322051,0.1906759467547915,0.16566316747641274,0
102.04452673241346,92.35471417010878,34.49422146970957,0.4023224605960206,169.49102252619295,0.21903836164205848,0.552709570166698,0.3951248847745673,0
79.18925607441855,91.37728301517141,36.72174086287425,0.2208145771843692,250.44515387871357,0.07189941865749605,0.4074356527661438,0.3163339091885522,0
142.354472444948,96.12166220723145,35.2761475599245,0.16675536725643014,370.5120013298063,0.7156737768553395,0.3900382776543051,0.09705413098337767,0
117.6767698587859,91.66545588593802,35.282168878546685,0.9929545430035686,219.14777965805322,0.39070255068810933,0.8097537174356638,0.43266010769071683,0
121.86788233607768,95.28629837536619,32.3200409780311,0.6900345561203552,467.4795259023517,0.7660799991182212,0.40759833383218125,0.33811577165956275,0
112.73839138451724,95.90116422344471,34.391597976310734,0.5878868582784869,92.50567307092362,0.4452947723752104,0.026454505480424162,0.12261922045743845,0
184.06266091568654,92.98041698346914,33.62440239453039,0.7889486503647696,216.86188889518138,0.3460024129722764,0.058063338891091276,0.2961171306119089,0
83.98924189141104,90.35064949018718,37.99601073698669,0.8560694437189517,369.02935554278986,0.4512054082123965,0.8562440416916203,0.8864360553553905,0
124.74967507892303,90.37253880614196,33.850130423793864,0.8260432912402548,151.6940445476716,0.7485589856706767,0.9606008100125213,0.3020488654893402,0
154.36234472932034,90.26347332193917,37.30697920876318,0.11488550436088896,345.38591040335285,0.9022202865403741,0.6884093364557076,0.7139554232420516,0
130.17399577316593,97.39124667136547,36.057402410242865,0.26812710837144865,123.89763120230567,0.049767196588575535,0.3643682941000802,0.6120470796577556,0
180.41781957176815,93.18009704814298,34.04549845515254,0.6894147719060479,75.19112818775886,0.5241115412269551,0.9386003157947275,0.4271811624083718,0
106.02572801157336,97.96300185967664,35.26120627024474,0.43818341302356667,104.45707253689199,0.0328354290838776,0.6628030863757358,0.23902563680366917,0
117.59623377937903,94.31732823842849,37.04321527969516,0.9842343859549962,468.4931524103606,0.4684095450243587,0.8443335491993377,0.36901469934594544,0
66.95051255398833,94.52998100829964,37.30020978818547,0.6988643133744287,298.28789732279813,0.8852828290969004,0.7658523040370093,0.5921072134710428,0
137.21487999201037,95.12882602509573,32.96236325003687,0.9608940178562858,408.35559896584203,0.36159026642030967,0.3791393157725924,0.35075321474935495,0
93.90861574049431,97.13031456375104,34.03743884724902,0.28130183348121446,199.69452540727306,0.9324504210806432,0.4787022008507855,0.21489643357423183,0
76.6417203346018,92.73502865829707,34.01133908128143,0.8775613253035207,316.696391548451,0.6306084716506094,0.1861321543680995,0.1164627488916321,0
128.5117245421086,91.21587349533527,32.252268776455665,0.38921707523370286,272.7284601672462,0.9341553437930064,0.29201410044073406,0.8797669379095653,0
126.86188555628793,95.56057335191461,35.58942655911138,0.9906083274140262,475.5820817310323,0.7571666254125197,0.7781256612865217,0.44031297575190564,0
65.24267156524641,93.26977623242739,37.12892031795313,0.2419198048658326,386.4085862243497,0.10343516664876229,0.8939783918831082,0.6252083217429301,0
149.25908622175382,94.42491313668037,34.289446326953104,0.564705836954494,378.74418417346055,0.23115136756267707,0.7244604232514118,0.49041036113680525,0
139.20924573786513,96.46946708337305,36.440215669905065,0.8135600804534098,70.85897124542579,0.3941704545835062,0.4651736966566383,0.8725665183579634,0
80.51733317077712,94.9412574114127,35.76620248160444,0.48937823254363233,297.35135105166097,0.17010688201207602,0.08650926893974753,0.5469348524482108,0
118.37370639079592,96.20278817100842,34.253892412958,0.521275654168882,260.14615425581667,0.4949116047766605,0.056947948698448214,0.48078141794911333,0
152.2435937246056,95.44200002113628,32.84635879695378,0.9877202159551669,467.5290199727875,0.4713681557014906,0.3743255646128538,0.9246009904217126,0
126.47382497307233,97.39796371936099,36.2559431166558,0.48277733527103805,165.8038946852895,0.9562591980273812,0.4638217187676631,0.7196895960453545,0
108.39102528478197,97.0593661771162,37.12739101364744,0.6436648905391572,171.42505398099246,0.43372788289597775,0.6091206222132969,0.11154990734685732,0
98.51569184092739,95.34189891808619,36.11512695440895,0.14908569460763565,235.1058119966752,0.7856268042879978,0.00648952138699721,0.17770446119681405,0
137.40317199694724,96.78903020859707,32.10727090420891,0.857989072189234,159.51637103286922,0.9419105448514798,0.9897228904663063,0.7871228629394419,0
181.77967427188247,98.73559602272613,33.29739736634595,0.6833512440815891,108.13276301393728,0.8769888309739855,0.3639388834040429,0.8358513211799543,0
145.68555346446027,94.32271287788168,32.416879909301194,0.4636180925765322,435.83668099286035,0.20866762451159182,0.8480946638011214,0.5451908290902965,0
65.09069699090259,94.12763072748794,35.42231659745736,0.11455258595906778,301.2244359817621,0.49602989425354427,0.5349667056654044,0.5544552278666393,0
117.19247142008805,97.6424562085238,36.53886607304247,0.6325019385341535,437.61322353045506,0.3477397822959257,0.1304394545333465,0.6319329628514445,0
175.26125775393473,95.82553837041993,32.66347512241196,0.11139204563574598,424.01064443166314,0.3998586951372155,0.7975655525345219,0.4391157742826395,0
67.75242748314673,90.71006780222588,37.030026923560314,0.10108325251811612,176.919059655352,0.3608068262457512,0.7098270749198761,0.680199123483904,0
188.49822113856834,98.92112015691082,35.3330538703729,0.6544887059344192,296.4818499459233,0.8263592101750041,0.527436084929228,0.10848125756641569,0
183.12436814213189,90.3078310223764,36.13981407285035,0.27011536060109886,87.4479662330317,0.45213905512244745,0.51455309133378,0.9612792423673864,0
65.56705489853324,97.48396356209743,37.82841109165188,0.2726987947462858,461.8633478138413,0.5236943322446882,0.08747960575092806,0.7501548237949217,0
181.0107982606899,97.58794142704313,32.502085929486185,0.6879444092494693,231.91822177931888,0.9824473570470746,0.6558489485738741,0.6311742040090069,0
104.0228996850274,99.53111085281931,37.40734413786674,0.14832746914543687,227.15428275005962,0.05997927219151644,0.9112451557542998,0.3163220570094807,0
169.03573755524144,90.54134408402321,32.75661617592446,0.38206500532710075,186.23991677807894,0.4879576397907488,0.09324491922135836,0.16095548745672916,0
111.48175059129166,95.96856860784492,34.357752839820094,0.23448871192781717,257.2986851198167,0.7740617069461161,0.2635114506489049,0.40934296382894464,0
114.51544021483964,94.27840570627053,37.108632177986685,0.6221587328168805,163.29172394545162,0.15116195818822653,0.9023079734420988,0.6615767405740585,0
140.62281728196825,93.30632954859541,37.43752542042721,0.6955886392546562,218.68352275856205,0.6115315946147739,0.2843439098197933,0.6337097434231109,0
159.55445160225776,90.90318560299073,35.03823004127087,0.7490222682391392,409.97617186319684,0.23946477953446677,0.6539436721799263,0.3826411550655715,0
59.561535378013566,95.62654119671309,35.56462782965255,0.3297080952267089,425.4149766133273,0.8674041132245676,0.5348181649431442,0.6132863938331298,0
135.07605939616315,94.79040725674614,36.24888400759134,0.1803247764729256,186.88211493283225,0.3270996654000793,0.5963276050038621,0.8137482955675476,0
80.20895420314508,91.04554458151024,36.996552010716286,0.17081529124770806,261.0564937487545,0.32906281690090955,0.4157889015772531,0.026284772337607065,0
101.70318491153239,96.12489507097084,32.729067017225994,0.48353639360565137,443.2188993260235,0.5981938785178935,0.2999914705537111,0.4506210479302757,0
101.97576993095423,97.37953120252938,36.860415849375364,0.9512599681564435,73.70299932336371,0.18356290811990872,0.04853345072966897,0.758555228466791,0
118.32314592985574,97.67278301053648,34.8876569030697,0.2959561308223222,450.11523289810344,0.28488863890306104,0.7442809392941642,0.5461444704633772,0
100.1084156032834,99.05373188262428,34.703740550649016,0.3310674412073944,148.63295554354926,0.4166318501194115,0.7460934621942268,0.65147608792907,0
69.49375099084014,94.09470741888777,34.54339851198199,0.19079992189527306,355.3426598964691,0.35363786314011036,0.6707257400787232,0.516676392605342,0
74.65987970093595,99.53072768622137,35.055269511476254,0.6450132465045372,312.1482633730701,0.5248772180055824,0.6436337881196206,0.991874544682311,0
59.514128050748184,98.65429405082686,37.67030332036762,0.7118855865524574,298.82333668516344,0.5996401440689663,0.24371713216752622,0.054621536489038225,0
118.48362651938183,92.96501571023938,35.28922263675291,0.678638087344684,436.71210113876964,0.5666674537501646,0.02234493376629121,0.4910448217723773,0
183.85043880515346,91.59283037349458,37.71906522957884,0.8750172187403031,95.70746464009757,0.6541683119919323,0.8087153968854397,0.09141654911451769,0
70.61615519249574,94.35389396128014,33.081740783693846,0.5377832515234646,206.16261139653622,0.30774951660782024,0.4911385356958269,0.15978556211357042,0
182.74570655541606,94.01898707955966,36.344815872995795,0.221011336690358,292.21373585514453,0.12642622715502805,0.30683813070261834,0.38303835041826184,0
154.00380448883263,95.75719305331204,36.87343723165248,0.3604646176339714,415.0799842757179,0.7608075414310771,0.10193190678057007,0.1555400915004873,0
141.062338396112,95.83386232327749,36.07477298800917,0.6961869760792166,147.39938753525217,0.850780382630682,0.0627215909013884,0.963687165956651,0
142.112496968681,97.49986984379976,35.64153368135924,0.6518097763674039,411.3184286184243,0.25700623222243224,0.3488667217951773,0.9467897767251591,0
166.6082325334981,95.0988994820561,35.388876686517094,0.5779028167686663,229.8373171222711,0.40709195615801974,0.8047370647669405,0.3361096462206038,0
69.43418169127588,91.04822640940766,37.16558289547218,0.7146679768198184,135.01123539516294,0.4985692169635553,0.9187237493338305,0.6397477120376796,0
123.14183368134813,98.58291335553106,36.929879582987,0.6736517653359694,391.5438981995672,0.5333268427529364,0.8967513646130647,0.5337533205937861,0
149.10730366520238,93.09764583185188,32.733732327083594,0.8931924005184565,90.90450566354653,0.6594901710876518,0.9200008347496549,0.8155869805157686,0
134.2207600849311,99.71297460306592,37.09152594218527,0.6274147397304669,281.6453183339493,0.041603233355321345,0.9077253431293427,0.6274456098169422,0
167.42517458814478,91.1786010867977,34.484411716642654,0.8007412228305009,78.74410273784979,0.721477082734017,0.5272247516003958,0.000252454490562104,0
64.75668071653246,99.58251172232504,33.52218097997486,0.32383644036982107,210.3880348210044,0.06197100697941027,0.21941563855690382,0.7631743856097388,0
148.2446403323874,90.91011806882517,37.218611408083554,0.7103643261301612,320.4845595528767,0.46828856767286786,0.7980465828368204,0.7468481212961181,0
127.0937436019369,92.31036137947059,34.59214879780245,0.9119747065444082,300.2519936692459,0.8276711355691941,0.213712974852579,0.509722705566481,0
106.18671663729236,90.46579942086541,36.8501881410609,0.44715909510984997,232.09493805709994,0.45121531327839626,0.2672072767565691,0.9029189732330538,0
100.93712260159417,97.05113146638995,33.58042167173507,0.801193768604782,243.07159728745205,0.14908974876824777,0.23325432182254846,0.9084462056904016,0
138.81240542451604,98.50298736571791,32.023575928533305,0.7523103710758918,152.04629900784494,0.9850338450059597,0.5149824036958058,0.5239116767043972,0
175.28437557697575,94.3407108181598,34.972755157417666,0.15357357718464024,255.1471647908463,0.8892854620742633,0.3218275081690799,0.6079882311965377,0
121.98375002365056,99.2852207504243,32.6013695398573,0.623357478661665,478.9646850743754,0.771313633225014,0.15415604962534146,0.9965220719246723,0
166.3376271503842,95.902990717556,36.526255733149455,0.21717041428072215,432.70381300270566,0.4115116028992104,0.4531734118938824,0.2988202348114175,0
109.29111154893562,96.30007135446523,33.65645081641646,0.9705872550075321,115.35479108435472,0.1838457268892978,0.873907238785167,0.32461724231147737,0
68.82325247707884,98.4541920170077,34.66187387962087,0.8302667524305906,63.40135429441442,0.9414111814185012,0.5705528549499722,0.18277390266349636,0
63.3032744219162,92.9680020505184,32.52220139054933,0.19875142112240812,470.08594072248377,0.532351126517139,0.8783356058875871,0.895866939157868,0
61.93014012869647,93.54265721327626,33.71995549068352,0.20957679788291056,287.0373874463364,0.8523554603874851,0.1958721850791374,0.7444883899492662,0
106.32026916428543,99.05951919194644,36.68894145955143,0.6350264694213571,292.0270204171885,0.34209500575942575,0.166973873672554,0.10564284887024189,0
100.52709636283868,99.00963496038764,32.90952747141392,0.410400256755865,401.32309806793506,0.3352883170794706,0.5755771256984202,0.9817673511979657,0
151.92149818904687,99.76482776200871,35.882957366761744,0.13141527316579837,191.61003824209695,0.9855404806740391,0.46332890154627304,0.730961708161116,0
155.2809027139569,99.01838316441672,37.50455511682701,0.5874773570497478,266.85840597620097,0.5218330484948498,0.6601726416469569,0.8505221096049745,0
61.86528579255488,91.27372036033361,36.07902055854632,0.44906058971726226,485.8983109160319,0.1406954238607463,0.7946267910267816,0.048150789173200925,0
84.85164049001702,98.23724286136988,36.86613013575336,0.1909688431345684,352.4669091195832,0.2196746779947074,0.7513072956521765,0.5049609189421677,0
92.02534977145146,94.09838478109594,32.653829775823496,0.8217283530303844,119.18526439810367,0.4819442793927208,0.9422611736585611,0.6985982867270393,0
128.92761785927928,99.90801355945938,33.50439095601233,0.9235690887509254,109.95203659295899,0.04247091048841134,0.39825640915701155,0.5429465845718413,0
74.50955522743828,94.72280964328802,37.36723311344355,0.7809345406127169,141.91914124985243,0.4625339853783005,0.20638674224818077,0.6666474656992775,0
73.08206461900005,95.53836082502221,36.290633681708535,0.8401800790146495,395.0202534893229,0.4189408420801276,0.5509126399478858,0.8178740635904725,0
182.41150004307434,95.29774915256799,35.83732295826387,0.29484151053950564,182.91965172827722,0.779336265319487,0.1107431201911856,0.3743370629601962,0
163.56739248520043,93.21737029858278,35.9826004167302,0.3372156558267409,59.624981003785905,0.35494196448924176,0.28885112333163143,0.8486686756187097,0
79.388411782308,90.75022088892918,34.48520332582786,0.287674786269269,474.87846357754785,0.9825487615395994,0.20788805526314447,0.16291610476529073,0
109.88665406724128,98.95651230401918,32.26733978970592,0.7885570882290076,126.3710373777098,0.18076991930090314,0.3965637167970809,0.27088605502637475,0
103.00896989977136,98.02675812526287,36.70664925242438,0.9531253710410473,54.301183766630864,0.5909866849681349,0.11121657500221538,0.043345619927325774,0
161.78554999883,91.39526780559669,36.07227941729212,0.7451534860605123,156.70922107249532,0.08969929700825463,0.03184174454809785,0.3644268113352511,0
123.87874372454648,97.76768271350073,34.83682678467635,0.8933200883916004,155.76295420316018,0.733863983993982,0.6567940046300318,0.3799095448241203,0
72.25971449411804,96.2584666605061,37.39855769220954,0.6748291853948553,239.90236288057537,0.9947536880619715,0.6102489782898048,0.8052705972072509,0
154.7639285260929,94.09143787917623,34.016957989910594,0.44889391050291916,464.1754241750166,0.8191386377516322,0.7083589360386612,0.653130670289656,0
108.57987706036405,92.54021149095563,33.76593046538741,0.4831854534372747,445.6332130005941,0.5557035407203013,0.660386440271344,0.43672255815566663,0
90.49477343033985,98.59728783502233,37.23677795047666,0.16778928895066436,255.60254974209258,0.48474135739969204,0.1142946811423835,0.6521139786237482,0
105.69231397279722,97.00188259294053,36.78192592855391,0.12831147572142348,234.90495724631293,0.8350299612668469,0.2910788813756463,0.05278335051569116,0
122.19713608693101,95.47739909469136,35.08987886389007,0.7259280437701696,299.75408891368306,0.9359740847107243,0.12952660990035236,0.1802715360183761,0
101.32059471629628,96.09568533898464,32.7844084367471,0.4945860028100626,159.5543053872946,0.989206525798093,0.8429724020485632,0.626947855241755,0
87.6572792998873,90.91066182082182,33.29042882879031,0.5969935612491666,73.48324638486328,0.3965392275644841,0.7469036553555233,0.6413668192253023,0
108.79777388853734,94.73919760911193,35.93736794245284,0.6018951228601747,472.650861277043,0.9909174747945123,0.20152700291824244,0.7741346587074271,0
57.588342951236264,91.93700292785702,34.31024742704247,0.3496382319999713,134.01454319472774,0.1559262521738315,0.3413092404898934,0.4029997590536022,0
159.28720922300238,92.08383679008826,37.01883914999583,0.5283032597465417,139.28032816057237,0.2535497759319092,0.9666149922642142,0.7225540966161562,0
78.07756063162408,96.61303962286867,37.69973005599323,0.523684199500932,262.6071479842764,0.0890161247338962,0.5941593578796515,0.6839803325601894,0
60.92712284013603,99.11256151834289,36.83382155164951,0.44958449910507137,271.22600517814885,0.27173851648448166,0.8011555973011573,0.9633933783698491,0
143.2493235421857,94.03756610478347,34.265272537973345,0.8386078450609634,58.29539436533388,0.7679375516180111,0.26459103476872914,0.21513022642467916,0
159.48137739119574,92.0774927301219,36.73211857538855,0.5060476033188364,116.57963244828682,0.8529243581784497,0.2100529201793052,0.5516795637526395,0
164.86693276503382,96.48746937236655,34.1086500408241,0.6432800720553891,220.1696683523338,0.7788926451025717,0.7839169288465484,0.6017644421104693,0
121.623739659181,98.71187046350317,33.0026005265938,0.9059681083427434,357.67881207974256,0.6310657781676963,0.6858724552314401,0.9986478849342207,0
82.72470493314802,97.48318801122491,32.20035922919514,0.8796102605730303,152.78830557437112,0.5139665125226456,0.6809779292117637,0.2011841421666517,0
154.52573642872662,98.68757230536588,34.31430027656612,0.9013799834012486,240.3565008087932,0.7087042892136465,0.5526345818291939,0.5232180199672922,0
149.4612654158355,95.36554671010799,37.42135582218369,0.3430044968185126,300.80527912241007,0.3908335492672218,0.5635783427765488,0.34618530771363887,0
88.24654910392839,97.51876244369191,33.43391952653406,0.13148423947725657,449.8666225804814,0.8413083514997018,0.7356975053062538,0.5258929685789998,0
176.96004704147705,91.40064559358936,33.2390789895787,0.3349601199057963,196.73172604720548,0.6771900939767854,0.2700024811211953,0.23212860210310593,0
69.09014684118192,93.48274615363192,37.81892471144624,0.35083661105863784,110.10121963856758,0.6978046984944085,0.35276846585695576,0.04761237842748811,0
187.66291234482895,93.89549164481522,32.15002467710355,0.9184242940524712,270.1725016539237,0.5359359931290713,0.8716367705200551,0.5725654538976889,0
171.13345448195773,95.11295746246034,36.71469290236253,0.6843184595541736,386.02472075782794,0.8852289842111726,0.30886520101215775,0.33585431586083214,0
147.86631713967515,99.29076360256823,33.92821973444522,0.1735335636420059,99.43689067373003,0.25201473367905247,0.546309571379299,0.18194140174843365,0
181.73123491777744,98.74296560222174,32.224927741217954,0.22184073640999102,241.10757126363217,0.3811476533610507,0.7026394640066841,0.32393556607803375,0
152.51200772370055,91.34525492289184,37.5068152412575,0.24010851298777788,58.00331356811754,0.7776425696776891,0.9999248268331765,0.04928020144774492,0
80.7116945990562,91.72789651882464,32.8378539812575,0.6673795733520308,65.101631741263,0.4927488961293377,0.43529133149533195,0.9504422340901033,0
114.69107864522958,93.57640549588912,35.310675702354175,0.7618726229563028,267.3290134474995,0.8892140134241908,0.4280928766249438,0.5811479149732605,0
64.65290828477077,92.90743865890674,33.64432524457729,0.8736795195088565,184.18878416791824,0.3463993197628523,0.8425883794336675,0.8147686813470248,0
107.60375200889558,96.14770953156263,32.39115681310815,0.9465728957256188,430.29828455243546,0.36933016881964476,0.8055031112598633,0.4231181975477304,0
155.11640766452317,99.02776047764544,32.299534913980274,0.2815341016477976,320.9694377569044,0.8887357893866253,0.7310758817345485,0.9033146675661857,0
107.16985237566035,99.62291541672587,32.69334019301803,0.37879523625164413,254.26983278434565,0.46437032018204105,0.4632296374090289,0.48331822155225335,0
99.5897136881981,96.53602952535226,32.42820208333628,0.3162905926703476,233.57091697443335,0.5161245842024867,0.3239391201607158,0.5739453222006694,0
135.3730225388921,98.38159201401086,36.563348693119536,0.422885410719524,273.7604660853035,0.3327637153356794,0.6087304825848486,0.49179398006265684,0
172.74761141485084,95.25202200230797,34.91339721370058,0.9231985966813745,68.1974740456976,0.2766699421790819,0.8762232931316409,0.7332782958676516,1
61.42373099372518,92.08326946860039,34.05735254809388,0.6176013102454254,451.75701038929697,0.655948710838392,0.8837774582085866,0.5666560776020624,0
107.03850868446429,95.24688412093478,34.510213460792045,0.7643727075920491,499.2364200802813,0.11984066154120387,0.10849834507043843,0.2715989235803977,0
76.36250014506047,95.55082601437651,37.57368041343574,0.5411073125141038,131.66920618641439,0.8792726411829093,0.42835028381315066,0.1455395313226463,0
148.8728238488024,97.42457564213557,37.46451087642888,0.1259721220025121,104.17233414857888,0.7792031367651079,0.46472195619874945,0.6061243888829777,0
69.2728156582032,92.1988298970735,36.29405888073546,0.15777593739803292,114.60985855186786,0.19074826370580278,0.9776153675237532,0.48917996154703625,0
144.749047408333,93.68310382086732,37.308094264530126,0.5841307281410972,347.4621762054652,0.6940199458245654,0.6779980152425845,0.09597569669611294,0
93.63441755771748,93.64027469214567,33.917888165525746,0.7469101313380231,347.64837730284864,0.6026329212856348,0.40724641726207056,0.3956174657932684,0
81.85376985452534,99.59439595741165,34.2866559560497,0.2937974747758584,431.56587302528493,0.1845350507366441,0.026057885985593,0.5147764220004536,0
181.40759530637303,94.43944960326719,35.68227309112537,0.7497186165930736,388.32187479181397,0.27320350605023247,0.5653851600991959,0.82689323382559,0
57.50081786070404,97.55093967298147,35.74175568378359,0.8295991961351612,252.36035301620288,0.4089865037338344,0.09607597563835613,0.07610105583336235,0
114.0999317050918,97.50811381374439,34.89019902807404,0.4707077305259001,325.7849127043935,0.6992427352454739,0.8344499573477631,0.3484953482460029,0
57.91964398234216,92.65544184803241,34.40394709062772,0.7717773095596945,359.72810166560356,0.638723408817006,0.7525186605703621,0.8226561227103854,0
120.28506149408442,95.71869689371732,37.91708186965217,0.46362695529561393,280.73141162835134,0.5322348476766979,0.46050915990817876,0.6484239317715788,0
122.64139600224645,98.94302893318648,36.92674175670635,0.710515566509518,264.0429430032365,0.7684105431140342,0.4292107795416997,0.2899583218037868,0
98.42443363829085,94.75197719456949,34.60988118732827,0.7875973443875888,340.29385053919395,0.757937739606166,0.8973389655687687,0.8453351220226424,0
72.8418399658782,99.45117507342546,36.36375486343741,0.9927339564772997,300.8635470390442,0.6178591540622559,0.2884583504181284,0.49329358056269235,0
105.81231759415417,92.14458229324161,33.617370159514756,0.41085699585723645,339.77403740115966,0.7869900833848252,0.2490199621067708,0.49835189131046054,0
145.7554968908964,90.74159105774031,32.60101595742398,0.46993670251715036,325.7846482835137,0.3342633747792092,0.9391974328257621,0.9765873392003843,0
160.623434167002,98.9145387314475,34.114586153316445,0.24905805346915422,373.6384522311446,0.8812495283226056,0.8092458367534826,0.9471165032363784,0
126.65133132239922,98.47681197962217,34.41783680074037,0.2836657525616262,339.26157895229426,0.6149100858019407,0.8206255930671946,0.3585326833698439,0
134.627643249367,99.92589875933845,32.099222747364024,0.72405550233854,283.88411889677025,0.8223635138124306,0.19519381427592553,0.1405791286630823,0
82.08321010182812,96.79393488112426,36.88875200981538,0.9253410311390284,356.8085650779739,0.546279104790284,0.1432959914309344,0.32566673227809406,0
93.78959498573268,99.36687926667149,34.155160414335086,0.4551444564951165,252.26688433344262,0.21843824498868036,0.0260295498171349,0.03048326031138804,0
76.85590735706839,98.2694902508411,35.482508994680884,0.2618600021519871,158.75205168767047,0.5424101286783086,0.23704150891868003,0.020767886710391203,0
88.65487225062253,98.44426333120087,32.44377912362574,0.3565895494446947,50.638199060261954,0.3711116637765881,0.7741904917143247,0.3955221362514192,0
85.35971533044679,95.69141570454268,33.049980972503505,0.5095465343273248,301.9838662156294,0.6974990360370945,0.24003841876414977,0.9410198226972342,0
125.12558616281707,93.82364597916711,37.33816235196536,0.3615852964288315,315.79485197388846,0.4757937917347358,0.7291032835948762,0.8713573412322078,0
130.96298203174848,99.34558072543282,35.6521251672968,0.31022117480967965,487.42203414907146,0.8361128049276877,0.2519082653674215,0.511442833917623,0
182.5679018109031,94.32117175615895,37.701704301022914,0.7623860398813715,212.665250342424,0.6780725123219167,0.3952924979506717,0.5652263811708307,0
81.40203735870561,95.3881936724967,37.9925002063479,0.10706042911656088,227.3599592727403,0.684544433031324,0.9831622899114084,0.005933496746056477,0
141.62622087180193,94.46114307125188,34.23116069199857,0.5853074746028348,140.80981160398562,0.21715533349106497,0.24481173128413558,0.2155011558337655,0
165.3300013133156,95.64818313960197,33.79281838449965,0.8143901263267785,81.74043285679485,0.9842497664912904,0.37637062729826765,0.024774126934383744,0
130.63259761071208,94.70505078992328,37.15013633095458,0.33960545768572137,397.7620217877833,0.8416752092714888,0.30108718046521366,0.7545395326953875,0
89.42549308764522,90.47967558579475,37.991668562224724,0.6429623595508156,162.35647895269625,0.7890048845606946,0.10962498633000228,0.14564579602649774,0
90.44428105270003,98.82048186007698,35.777847405394745,0.702010095056756,324.0071874635171,0.33021522516002744,0.48989414213082494,0.8690471024768169,0
60.299162164584985,94.44393818915769,36.770844335069135,0.689522226764581,359.49786599546667,0.5356316528472319,0.3786906633330023,0.6433243136757882,0
96.23497058404503,95.88943648507349,36.69047515289165,0.501264670778846,262.05650928124146,0.13710318807432864,0.6948870858072801,0.22941867651571335,0
155.5214966654563,91.39187802757986,34.13203824931728,0.41192018908820127,444.3584508622362,0.538475976662706,0.8175945469515462,0.15772031708324974,0
61.4148972229599,90.03387847982638,35.445622281542526,0.8523316657250322,249.70767844087794,0.14588924648328727,0.5442497144956385,0.6276247009230531,0
84.60486313815214,92.45290093643644,36.99834164758528,0.7826013612998779,178.2088803687943,0.5530378439896012,0.03219642208733686,0.9008369802823235,0
150.34138730179058,97.0458603213335,36.12868325756634,0.38912965607252126,453.20698533273,0.6487218801549056,0.6189223562347216,0.7183602189143816,0
160.65796098108837,90.99194530112878,32.12698288389223,0.19271727499798547,437.7039279124804,0.39019596724990235,0.055390730020939194,0.3485466516033776,0
116.46798535836034,99.08887440386468,34.0202340133852,0.16462679090092228,123.81797618438586,0.49854487833129324,0.6163563235990249,0.5873835952686471,0
149.24003569461757,92.15022569356185,32.86685417956763,0.18484838010904245,61.68245825926443,0.8756533876745859,0.6850299492691885,0.3107616953724214,0
107.37354276841043,92.04593614291775,33.39783327246823,0.6245824250728386,90.49350035732931,0.10856314470280937,0.19776762761751843,0.9991495667786588,0
76.58828807825722,91.81507961621496,37.432936864947955,0.14649595824609074,178.94632934921768,0.7917328929996529,0.819346148721771,0.7488391884618512,0
108.75018162559238,90.13981712971365,32.22135973346461,0.4032341874676346,487.5169107837698,0.1707545509961964,0.9110851315740486,0.6143816397567536,0
133.29565572742428,97.71805468478235,33.31880427177154,0.7778797317228064,301.33226892237127,0.03670798280462839,0.8130869641138196,0.4232591427658292,0
182.9871930501402,98.75034531245258,33.85741611342939,0.3649133498638403,217.96777941317097,0.18557460274504778,0.30510919021208216,0.6181522902595573,0
64.28137853197144,96.14162702616198,35.70130443179837,0.7869772694621169,449.9222425757359,0.7650431899704897,0.5866430124456344,0.3416160624673348,0
123.49820266906968,91.88199981679863,35.20461014051519,0.7709203343863498,253.91134916532482,0.40512607333686,0.9148151491912277,0.028864839458030755,0
99.40417005844779,92.8527799694088,33.309616897120314,0.3212444193698947,191.85738278045952,0.8725205168461819,0.3206647262228499,0.39508852235663283,0
123.62207872735377,94.75926697364963,32.985446403338926,0.7559399620834709,473.5487879355458,0.5247075411822658,0.820027822265425,0.930480819579867,0
58.23668539583178,99.54345951623301,33.42078820757671,0.7729989744448906,432.2829497867051,0.022250351926330958,0.009475131261696523,0.6263010947738659,0
97.25842288471348,92.47351371817743,35.01517776020994,0.4577085331003242,429.65076893874846,0.7167136096019268,0.00364670278467627,0.08395570307090161,0
165.6821999161457,97.31645903919888,33.62706671426722,0.2893784353673664,280.5281343725959,0.1102329087212327,0.7597116603389674,0.8849936133950259,0
129.78213407037606,94.3944822329292,37.685615009646334,0.5691437262026822,405.24727946695475,0.7893796334619244,0.7614475821271212,0.26887484934151484,0
115.82863653017586,92.97847348360021,34.78319132857308,0.9292578292001767,130.70901166904832,0.16810254980518002,0.7889771878522938,0.24376949308272744,0
93.54588468157084,94.55915937022114,32.35277609926782,0.6756550591888557,307.95033090030967,0.34544638580551346,0.9300268378881623,0.2970909687803208,0
95.23574057683305,90.71206717541233,36.375598435019796,0.2556302478645351,492.73066528139555,0.7612714296253603,0.11790631182028422,0.5772022361259574,0
106.7186935347289,97.98687370930362,33.97307172925394,0.7144812322601679,180.93129373308275,0.9542313574764216,0.23198498498368836,0.5446880934339766,0
167.80204584521567,92.43301927982967,35.920933592349485,0.48448272455365116,407.45854816145385,0.37143395064673235,0.9037249203738076,0.4914137546228817,0
185.57378291911624,97.2541212319297,33.677566223139394,0.6323759176198357,270.71528324363027,0.8294002201989358,0.17723619777235344,0.717536863512627,0
114.21847648230056,90.68348371448195,35.42446245039992,0.7606576315207971,67.9125574499393,0.19079226547583872,0.682229267576584,0.316537731334959,0
108.10263323094784,99.55098556165686,36.63291502884479,0.5634526163630004,393.35872901705034,0.8071797702024911,0.5304630000408154,0.7820645215724311,0
169.28435473568146,91.93014985405699,37.56805245064732,0.8325855771159778,125.85611497645075,0.657494059256251,0.08319367685150725,0.17532167837859913,0
112.63221828590099,98.8274207620708,33.56676286659846,0.749940021384965,334.1631052097376,0.19274350721236844,0.28526366194153285,0.7826207890770093,0
129.5224532599129,98.09473209615435,34.00914170599388,0.6535660060166596,88.54888732113781,0.3025039603514116,0.5203722164409679,0.6638101052502828,0
86.1771247208305,99.67859924081417,34.78559852171564,0.23571353424911634,476.09032887318415,0.131770888597036,0.8523501166838341,0.6832083095475865,0
155.37284233017516,94.7789066094575,37.56304902641593,0.8523541998204115,181.27574923116242,0.3829670110643133,0.7075384896146737,0.48155339712726,0
126.81842296655554,97.27397293845951,37.40832114086394,0.9423150267878344,151.9091112548277,0.2036486411232774,0.621883161454933,0.6670015326808647,0
164.2196642824461,93.70710657037785,32.53926968060383,0.22326861142836535,108.11138182985044,0.6439979536304735,0.4960328899414148,0.07979704655945741,0
160.39891855387043,91.84368238019694,32.79157895452286,0.5394170164900876,475.7009870025715,0.9945051042205587,0.2986839838141343,0.8515511170493673,0
84.02564371645386,94.43075932933449,34.97305506398383,0.33299986777345403,370.3566840985873,0.01200916308426414,0.11924491131926118,0.05554723348764601,0
151.61079932529793,91.65749015388455,32.63971563683254,0.7790709766830082,383.7473999231399,0.5409198132872987,0.40907603456609554,0.14874150987149748,0
163.00734507343515,99.82044622786384,34.07348524009218,0.7494666724042299,274.73205262111003,0.5736665975490097,0.028518493911292575,0.5767897084972363,0
101.72447750562333,90.96246491140717,32.890312269304864,0.22679660851335884,263.6275033717176,0.9142087896808119,0.2110558892668506,0.7394114554566915,0
78.30223024180707,95.89211723452621,35.816242130791316,0.8893245441354735,99.50955934616448,0.5060053347669375,0.43248337587265984,0.07625156434625346,0
55.355341003244405,96.26463855254056,37.69697259043497,0.2628757575802021,301.92849301279625,0.5437014196449175,0.41860518567191507,0.9207648141223198,0
115.871993167575,95.38079542874054,37.98040262176629,0.8175331230832967,161.1124227989557,0.4716528013283886,0.0442954309969924,0.9736076488006986,0
102.5784187577436,96.62185885711834,34.25144679498149,0.5112823236652044,489.7153997601826,0.2689043045614814,0.5890601535252913,0.605950173007711,0
129.91282756643022,91.16180775011891,35.59407582268767,0.39544506420233616,408.4614230068163,0.056029133248913676,0.5496842558532362,0.48124345537683655,0
80.38554749948608,95.5501852420529,37.137605921144484,0.24241533640679216,235.84642708679942,0.4086576822098361,0.07810430402091284,0.7413949722797497,0
171.05484893497413,92.87212571127361,32.704772436778306,0.2508528305319665,118.10356641118986,0.05259147124067853,0.9431630524604393,0.3283573523272054,0
89.7969541097948,99.40176063301057,36.13738646631179,0.6957014992308103,403.39926101245277,0.5504924694659178,0.09938277895086012,0.49326443410510645,0
85.56799668683274,97.62071653439726,34.45306197035041,0.5953873491524084,104.92419518659219,0.30729364324229314,0.8548341512373361,0.9161510268144013,0
119.89639762538805,99.72514482159742,33.236876961680984,0.20987687948610945,135.2001890736817,0.5336024015254278,0.00030973191500593966,0.9556554252415336,0
122.34488820547702,90.3755606974019,34.41652171248465,0.20142807439449267,145.18423298490234,0.13429696439518668,0.8822810950453831,0.927069116051185,0
84.03650588598754,92.85133175180708,32.4557617217895,0.16507951729551232,300.60078722289245,0.9326299657393596,0.019719732204312557,0.26244806696384015,0
91.70119810799864,91.9542258663835,36.17244289153584,0.7693906126361897,404.1754942956648,0.8945212435499349,0.757812031892116,0.2324690402167634,0
77.91020728595807,90.1115458731183,33.51645601249072,0.7406938767063602,191.4416954261115,0.1899965092022845,0.36169081130025293,0.29766450592931426,0
151.9921240736275,92.42325730246321,33.86843387026927,0.15258789176911763,88.10141642388024,0.3434442832940099,0.7382168001363199,0.4413111123884602,0
158.96201921930106,96.78775983520428,32.726487789448775,0.6042430680372757,259.0423085859886,0.6134927718519796,0.4017452054249785,0.3141674127919636,0
117.41434715700316,92.31088922134569,37.18795468333935,0.17620853971842093,386.649608521971,0.09568620730590627,0.07090792233184173,0.37421279573905797,0
151.40174806247734,95.09003445482618,34.96066567569643,0.9133711935480475,149.74872938932475,0.3545678211161508,0.7675066953953641,0.6206369521207595,0
154.35127791155514,98.87818114964999,35.432881266718404,0.9164056772621192,148.9660466177184,0.2511122868190061,0.07125268532136497,0.7625256770939759,0
73.66719623650417,96.93757920349076,35.41659609856913,0.7284096908318171,476.2521623060199,0.9155167287166966,0.922120435961218,0.735558198267917,0
185.43403335266245,93.94629069906031,34.46295868724805,0.9335700292955049,479.36917720363004,0.8525106362892052,0.050974035791661376,0.814423567079152,1
165.8393128580182,93.72468938912108,33.15517949262884,0.8303077273723215,495.7095794277094,0.5798327412668638,0.47932527777151546,0.03218440321540217,0
82.60526726143617,94.55735814008484,36.4707964909904,0.8456847183343444,413.44682070865105,0.5203463368715742,0.7230344308507957,0.04773378967875608,0
80.13227982571948,91.77041441059906,32.76233759214605,0.6127370655129399,134.6828761255755,0.9307257945453972,0.39324646479203773,0.7893829606886293,0
71.96425465324367,96.34000767415988,32.62324274167286,0.37545327839455833,145.3916843596676,0.9324277829788153,0.2172334745924347,0.5330788223246319,0
73.68110594315898,93.64152819104605,36.26087022557902,0.2960192036047794,203.10135868507638,0.9693301253516604,0.759090961396027,0.5781406737621203,0
156.00184286887398,98.52365349262044,33.253022122711904,0.3944800198350362,193.15963910007088,0.12537888410818765,0.7842947047887264,0.052586860214377085,0
118.40332468846918,97.56552660057817,33.840636508116994,0.6656458870801558,480.43748708510407,0.16055781076317022,0.9226949839543672,0.2553138011712709,0
160.69611331988207,96.1051316409216,34.851364802010444,0.25539088224915907,405.0832922967621,0.6767366986798866,0.3761651104310777,0.6383543048854777,0
155.74441073727775,93.64202222649516,34.69610790037728,0.33277621297358945,375.80395647269927,0.5414344766098449,0.5062517344973269,0.8591818901106761,0
136.6227163232049,92.09931831673484,36.251474750389995,0.521254776515918,133.68345082615932,0.018465904893235963,0.36312844284607204,0.9169833971814025,0
147.65949188812175,97.76151864105623,35.74059076066017,0.309745088672154,459.2865017130483,0.06197503598951937,0.2570818218513682,0.5004194958350817,0
57.478022791184145,94.86409098991086,35.866376973691196,0.6297793027444555,422.5416707777782,0.8880803822588051,0.7510329615376086,0.5454742327381976,0
97.08998231867795,92.24750038177358,36.284325983932746,0.9308584256106969,123.63882859756566,0.8688707955393863,0.33965184501695544,0.8330496310689909,0
141.10599420002038,91.95174615040006,33.75567636454079,0.7732804291328138,442.0266493824376,0.35727092199604515,0.42814944199235205,0.5376246007473546,0
56.26156872064297,91.6540090450136,33.93399987080284,0.6997839527340217,172.51139136671208,0.8910506169305347,0.40367365762402785,0.5168585255373174,0
59.45188739715011,97.77161196205594,34.62798648737333,0.6244493283854009,86.39138562444772,0.5936750743979018,0.7126612256467458,0.9050840377609537,0
170.00487763350174,92.28987185300312,33.844773038201154,0.5391531183313584,345.5700379313945,0.8059056470189019,0.9177956261106798,0.7899327210558801,0
147.3433563284297,95.26642263525197,37.90962721382518,0.2679074736711937,344.2120967229488,0.4274310711602143,0.6667560613073773,0.9090725263612945,0
90.82491397124643,94.51546360973056,36.88431155852858,0.905239409884179,92.71940430452814,0.11339832734490873,0.4715825960942326,0.2182470547811538,0
147.8749834160257,95.79610899228284,32.98792812953618,0.3236824018115527,193.48331402146206,0.43372706264601624,0.7792051147388834,0.5243754866553567,0
161.98165033380053,98.77154900371194,32.03356493529122,0.18217798982034467,496.7665080149924,0.4572997979968979,0.6409713241221375,0.842472128593358,0
96.41722821986367,98.6774739008173,32.256699609483604,0.7750136613058257,355.2920001539316,0.550944193840603,0.060610357117813485,0.11114782746710894,0
59.865045962390305,94.51076071824859,33.46438070625755,0.25805398089804976,378.5338249714981,0.105582712904428,0.09566358641884165,0.7946621542939618,0
180.92518183284415,90.15366250734724,32.68574771502114,0.4347063995870585,145.81277852193756,0.9914018630496114,0.03791694407363333,0.18297338341486946,0
101.59927816991012,94.26443805714302,35.200028689355435,0.12545643546188176,85.45193195176145,0.24413682080690635,0.45681632620631984,0.8081187549853212,0
69.37503804343535,96.0619353742414,37.14797133636415,0.22336114828640327,174.60576038342194,0.19855240353709291,0.8258534343389649,0.6120009375568681,0
121.4006776380749,95.57764759098062,36.420501325479364,0.2558832676839209,162.00427333693636,0.5268029188559366,0.31308316935135205,0.19323599148486714,0
158.74315241465808,96.51336105800206,33.293654378493144,0.14896911497516016,155.5448453366239,0.5372081793948886,0.3841601830924817,0.4733541793328011,0
84.92238747337049,91.54075732473083,34.395795536154715,0.6909912609605606,136.7394448491678,0.43982073783324427,0.9094771083678906,0.6819051664607716,0
91.38115676800405,96.46535098780733,35.047365257187664,0.8533070162228055,308.64006079493197,0.7718921463252545,0.8369034453166548,0.6338529008835424,0
87.76652321780873,91.82651618743772,36.861235097020014,0.4359838657293469,197.6465641288198,0.5166544007286027,0.66504811238256,0.4272471962317044,0
188.87586213227655,97.5052398069675,37.03472961863699,0.8871188290463806,419.1552567713887,0.6096954551449841,0.2668037820922513,0.8993665289209269,1
81.64950405362325,93.3908761326268,37.45830987144666,0.2920119171041139,132.77633803132278,0.7237463854077856,0.1170414826884435,0.5192634144878443,0
132.69522929042674,97.09895433381453,35.05547150301725,0.39285138120511554,259.08218189084505,0.025025101563866614,0.016058822680113716,0.5058672985286884,0
179.91072662369018,90.47865598906107,36.165648478615175,0.23566329372805156,56.146026391735994,0.5706441825450448,0.10701067260442088,0.06225058994145427,0
74.8310367985002,94.07860025590914,32.67080222740362,0.6585032758770988,266.7570451048364,0.8841944712283692,0.29259644362394277,0.9221203897976371,0
186.06531671213952,97.05034522263333,35.39173375972389,0.47788263178327617,75.12719939441348,0.01738874292543391,0.5517900635794957,0.177116568678373,0
182.90942664340932,92.26870516331495,33.49215085682681,0.6519550121577088,489.9755803426896,0.4051821038009611,0.06400008275238689,0.5283446934365542,0
174.41721825286544,97.95287044797223,34.59030131015967,0.7855074148547653,405.76645789268576,0.92622745020583,0.136227778318449,0.8035676014003101,0
83.9651303795503,96.30779733104931,35.804303049840314,0.5911327144296536,270.5501644864049,0.3531544022825378,0.18108070230794104,0.2154532769556433,0
140.59743256148275,95.87561772149799,33.541915627122684,0.664867319411609,88.96431118070763,0.45872882420024086,0.6319820929833062,0.5273732899708411,0
157.72034884976742,93.53548854204337,32.31311034678057,0.9417252829548997,316.6004483556864,0.9815413930443128,0.6157897989801244,0.24068490922334085,0
188.113770306518,94.82451470381118,32.06140313845255,0.3691578786479588,391.4436878158449,0.1993238589505738,0.5507657263721529,0.7596949977999118,0
79.357215980985,95.97349300977854,32.132957213267126,0.4232475447705578,135.82276385213538,0.06525518912500594,0.2505014246959396,0.5643411678731507,0
158.413496435105,94.72462113914891,32.050098425082616,0.7459330255384032,305.69375335437087,0.8594225908613043,0.371119691218732,0.8559758603951435,0
100.73815794016025,96.9831332394056,32.66213033934725,0.6501749653498481,416.3949042722906,0.8684653412123685,0.09668971633774304,0.8945580028773829,0
78.70957285168032,94.3369693310696,33.43693228742078,0.26067961408574336,395.7114999408424,0.4720778346800132,0.22646060375805488,0.6487334824453981,0
111.88588706387041,92.02273181742031,33.327329085093794,0.4385325790094412,411.3464080402188,0.5142071744772863,0.8977052264725804,0.7253912461589445,0
162.1678481400632,92.13933782801047,37.92077956507938,0.5210542118122434,445.69554119137393,0.835806369617836,0.9796917464358285,0.5492200998868637,0
117.75472350004705,90.05803768842941,33.83603663125366,0.4774508541715504,471.9569459717616,0.7385594981157951,0.6476595856402947,0.3844287330673829,0
127.56561852741154,93.00957715558673,32.76452470015639,0.26044732748983673,232.48451984159118,0.26514900221701065,0.9168232920234202,0.6481179230208346,0
189.34652037701636,97.4891764047852,35.27337526500655,0.9319870826058361,305.94609613529474,0.016893355071518457,0.6427419004014251,0.9082886234873289,1
108.87975544025252,97.9416270883761,37.14774473238505,0.7860868855245783,405.7967867205249,0.47970016253354575,0.03319648610546988,0.41668038043143796,0
138.07910188574738,92.0246754209575,36.06836226072605,0.5332202488970671,363.7129162756024,0.8589123260956414,0.996762584986409,0.31441002637379534,0
104.30796721807519,99.59043996871408,33.776492534812704,0.7120549254761529,497.98410271897046,0.8958346766901621,0.0989523016865349,0.3884369385525741,0
108.02606225437518,95.02402793480127,35.36969695874873,0.9075544049219696,56.15494299708986,0.9562261970761539,0.6826418014450607,0.4353976302115996,0
148.9115017151301,99.16978749018503,36.28913584520245,0.2225567281254141,209.8099468921058,0.8795632376127812,0.25283620307479004,0.07356102897771621,0
181.61474177280928,97.06765281861631,36.368626954206455,0.3253357456362799,176.4625668215911,0.5800435552980984,0.39198111290696014,0.4984418404349944,0
128.2184583164634,97.22433423022413,35.999230731786135,0.5884311225309805,168.04213257449055,0.4446055992361009,0.6459341848009382,0.49431424805005963,0
158.73399040808528,90.85043621306072,37.22486254865371,0.8191093342171227,150.1384021244986,0.774849846534099,0.43648734930770705,0.5884438276405232,0
67.04288544029012,92.1999112689693,37.220632750064624,0.13262940589737465,369.1057283668531,0.7398216343655964,0.25054605893112825,0.3628200304713315,0
83.50633505331014,90.08814833294473,35.47361935644202,0.9856163351767244,88.14176297389483,0.5381434300814544,0.3344461868783247,0.6131075959555897,0
